# GEOPSY output version 1.1
# Number of windows = 78
# f0 from average	2.96381
# Number of windows for f0 = 78
# f0 from windows	3.3048	2.88398	3.78703
# f0 amplitude	2.66667e-13
# Position	0 0 0
# Category	Default
# Frequency	Average	Min	Max
1	7.9162917305525903402e-16	5.2370401695368618975e-16	1.1966239084386734732e-15
1.0249999999999999112	9.17407033475555679e-16	6.1136662274011854023e-16	1.3766464078432103564e-15
1.0506249999999999201	1.0757772219034592486e-15	7.2534430522943426078e-16	1.595513500033972223e-15
1.0768906249999996572	1.2663382996026956227e-15	8.6769103095306320631e-16	1.8481379106561173803e-15
1.1038128906249995431	1.4875676637843573161e-15	1.0238965347563168879e-15	2.1612120748738559045e-15
1.1314082128906244318	1.7379954273266966022e-15	1.1761274366105675247e-15	2.5682830035098309481e-15
1.1596934182128899593	2.0210443105739702775e-15	1.3364353510840310884e-15	3.056354429707529076e-15
1.1886857536682122749	2.3514480203086252045e-15	1.5415156530604399628e-15	3.5869293842302352505e-15
1.2184028975099172598	2.7545318542455691998e-15	1.8248978906469993756e-15	4.1577371396727742968e-15
1.2488629699476652135	3.2536787468323734844e-15	2.2035180676258705595e-15	4.8043288335705744988e-15
1.280084544196356644	3.8564140385245184533e-15	2.6855469575210075436e-15	5.5377654800931377296e-15
1.3120866578012655435	4.5548731560761538122e-15	3.2842772316373363236e-15	6.3170274628734807548e-15
1.3448888242462970766	5.3418399449727472747e-15	3.9933276441856417074e-15	7.1457332180729765634e-15
1.378511044852454237	6.2236312065617973711e-15	4.7383985175239384909e-15	8.1744043376769802266e-15
1.4129738209737656707	7.2143140907585871161e-15	5.4537592687174042959e-15	9.5432022639235359167e-15
1.448298166498109607	8.3280607848029714745e-15	6.207884622152194152e-15	1.117233979959634585e-14
1.4845056206605622418	9.5983357778040554472e-15	7.1244670761910806836e-15	1.293121979766763921e-14
1.5216182611770761035	1.1116941109668450584e-14	8.3251903114067447275e-15	1.4844871409906956919e-14
1.559658717706502884	1.3055529677112691995e-14	9.9463187859664781576e-15	1.713667727908119982e-14
1.5986501856491652784	1.5643084856441249746e-14	1.2035363460340180647e-14	2.0332257071603627322e-14
1.6386164402903942161	1.9102808437238517825e-14	1.4540060780547260129e-14	2.509737034098534895e-14
1.6795818512976541381	2.3566906407717207766e-14	1.7614916226623716513e-14	3.153004365644699652e-14
1.7215713975800952529	2.899594900492504789e-14	2.1503953542234803149e-14	3.9098161974955478973e-14
1.7646106825195975176	3.5155156529777488896e-14	2.6152713148972350844e-14	4.7256474828949815535e-14
1.8087259495825871447	4.1696217236127564879e-14	3.1343523241360026532e-14	5.5468382364499716476e-14
1.85394409832215179	4.831142993936844053e-14	3.6935346708637465187e-14	6.3191345710061852208e-14
1.9002927007802052906	5.4833285827253743258e-14	4.2482218791599089395e-14	7.07752400919295343e-14
1.9478000182997103895	6.1223950514149913562e-14	4.7163016482901926584e-14	7.9476937568613321451e-14
1.9964950187572030327	6.7551601532461732288e-14	5.090778133120385344e-14	8.9636962175043124478e-14
2.0464073942261329364	7.4040471224438314127e-14	5.4761734196350535534e-14	1.0010624133050578799e-13
2.0975675790817858157	8.116342247664295561e-14	5.9966388074553694164e-14	1.0985322544242728722e-13
2.150006768558830661	8.960969656354414425e-14	6.7155025055328514674e-14	1.1957255189160726469e-13
2.2037569377728010167	9.9980725719989961593e-14	7.5841117751484160609e-14	1.3180377362384329533e-13
2.2588508612171209755	1.1234635997243566761e-13	8.4906931318323530066e-14	1.4865340677236607149e-13
2.3153221327475486113	1.2605632297461847677e-13	9.3786431704375457104e-14	1.6942958883401034508e-13
2.3732051860662370935	1.4014467493255132662e-13	1.0229918637725147128e-13	1.9199106666910886151e-13
2.4325353157178928321	1.5414497750995711913e-13	1.1058077747284720201e-13	2.1487164979808133564e-13
2.4933486986108399641	1.6864057265097995854e-13	1.1965006154599293059e-13	2.3769016393792981453e-13
2.5556824160761109077	1.8501829102423298831e-13	1.309478507626955964e-13	2.6141527191280727114e-13
2.6195744764780131142	2.0460026373365595556e-13	1.4529920965792948967e-13	2.8810389277707301127e-13
2.6850638383899632089	2.2761721824408060905e-13	1.6204862111470034108e-13	3.197163770033059856e-13
2.7521904343497123335	2.5246183636275314522e-13	1.789249179424884247e-13	3.5622192566906993702e-13
2.8209951952084546534	2.7562641378956054653e-13	1.9323643922614237324e-13	3.9314489690832757187e-13
2.8915200750886658199	2.9277628258169441032e-13	2.0320733496234049316e-13	4.2182508647260151415e-13
2.9638080769658823321	3.0078974503975766865e-13	2.0813601187565496879e-13	4.3468917226651705949e-13
3.0379032788900293127	2.9939600142846733775e-13	2.0812695024136861586e-13	4.3068889236785548625e-13
3.1138508608622794682	2.9110078174996639832e-13	2.0443886664096523744e-13	4.1449880117101730294e-13
3.1916971323838363439	2.7978490737189960234e-13	1.9963045125192653369e-13	3.9212251388600214077e-13
3.2714895606934319972	2.6935026338232298284e-13	1.9604158824900373782e-13	3.7007231492114506084e-13
3.3532767997107675306	2.6285640634775175407e-13	1.9446877784354155256e-13	3.5529348785049217498e-13
3.4371087197035361527	2.6179999459333305244e-13	1.9461349721871842447e-13	3.5218131398173616412e-13
3.5230364376961245121	2.6553424587623126908e-13	1.9556946393615344977e-13	3.6052885922966670645e-13
3.6111123486385272585	2.7136202313535185789e-13	1.9586060273349558298e-13	3.7596814557090079487e-13
3.7013901573544902845	2.7565457360581904323e-13	1.9419669211630827389e-13	3.9128083553707859965e-13
3.7939249112883519643	2.7576811514433427013e-13	1.9045005546015156055e-13	3.9930706844120911137e-13
3.8887730340705606302	2.7165608177432833862e-13	1.8575838954716688805e-13	3.9727426010141186648e-13
3.9859923599223243684	2.6559668892602383862e-13	1.8184755792905260226e-13	3.879161313565107779e-13
4.0856421689203816783	2.6012469427390172711e-13	1.80104658932218734e-13	3.7569742488758212837e-13
4.1877832231433913535	2.5600181028214960499e-13	1.8032059991957551821e-13	3.6344669936195717758e-13
4.2924778037219750715	2.5180371752690236588e-13	1.8012841248835618918e-13	3.5199950571077535993e-13
4.3997897488150243817	2.4530755577214496436e-13	1.7697705377219775302e-13	3.4002033391493459372e-13
4.5097844925353998136	2.3559760195127539743e-13	1.7085367054050076656e-13	3.2487584182181139587e-13
4.6225291048487839873	2.2395530719766305185e-13	1.6373187202654769764e-13	3.06329971075315572e-13
4.7380923324700034982	2.1259601396525500242e-13	1.5701528159283036529e-13	2.8785137787492076153e-13
4.856544640781753408	2.0273521846091973169e-13	1.5027921081361177099e-13	2.7350136177767318841e-13
4.9779582568012967769	1.9387565961198772141e-13	1.4233973688609352691e-13	2.6407082247217237481e-13
5.1024072132213289521	1.8470510750460375742e-13	1.3335169434545076586e-13	2.5583459517138922623e-13
5.2299673935518615764	1.7453076249664008405e-13	1.2460574771178051174e-13	2.4445892438378057013e-13
5.3607165783906571832	1.6375784612325359432e-13	1.1671982525368431975e-13	2.2975216171411050461e-13
5.4947344928504229244	1.5321187433916769307e-13	1.0926753282438169664e-13	2.1482939928962142626e-13
5.6321028551716834087	1.4342068367042359401e-13	1.0172141467992097381e-13	2.0221398384220436096e-13
5.7729054265509747168	1.3454711656080374838e-13	9.4033940112168070703e-14	1.9251481489803037763e-13
5.9172280622147486184	1.2668163999281432685e-13	8.6640972237286809758e-14	1.8522689089080296538e-13
6.0651587637701167566	1.1988851601007399022e-13	8.0270292222427996522e-14	1.7906071939129921698e-13
6.2167877328643692536	1.1397260850752556878e-13	7.5372016315952021659e-14	1.7234188661688342384e-13
6.3722074261859784627	1.0846210783371868403e-13	7.1723512889240433902e-14	1.6401913907786292063e-13
6.5315126118406272582	1.0301741955827035304e-13	6.8674872865483664716e-14	1.5453379510773936953e-13
6.6948004271366423623	9.7823139783257357631e-14	6.5726497574968964473e-14	1.4559374118694970017e-13
6.8621704378150578663	9.3390096982254701777e-14	6.2805747334352057164e-14	1.3886802696454081694e-13
7.0337246987604338244	8.993427933050606946e-14	5.9985449597640994088e-14	1.348356085175623928e-13
7.2095678162294438707	8.7002439531797936511e-14	5.7195795492226162183e-14	1.3234232375547541464e-13
7.3898070116351792791	8.3707028253714538565e-14	5.4273426456403340449e-14	1.2910308113117986381e-13
7.5745521869260574732	7.9420739456512748992e-14	5.1175912006463711871e-14	1.2325435167667555483e-13
7.7639159915992088656	7.4323973628503560825e-14	4.8129324744838479167e-14	1.1477520379138306717e-13
7.9580138913891884656	6.9265345267774747793e-14	4.5529480426252257469e-14	1.0537541852328504345e-13
8.1569642386739165119	6.5099424189011525242e-14	4.3670549159073221519e-14	9.7043318926534808095e-14
8.3608883446407649132	6.2122309656037427385e-14	4.249632852919127745e-14	9.0812112259290342284e-14
8.5699105532567827481	5.9976449207726566684e-14	4.1569520828405957557e-14	8.6533940923103582686e-14
8.7841583170882007181	5.7986472731766439454e-14	4.0364448621704553328e-14	8.3301794888481757678e-14
9.0037622750154060469	5.5682148176538109671e-14	3.8628568683744710797e-14	8.0264470861915944231e-14
9.2288563318907907984	5.314252999381149994e-14	3.653578942338964589e-14	7.7297590628634168716e-14
9.4595777401880596358	5.0890910729823140464e-14	3.4618954302753159884e-14	7.4811179224580477728e-14
9.6960671836927598832	4.9488596586258755544e-14	3.3470173244833573535e-14	7.3173245150606012456e-14
9.9384688632850775036	4.922773667750103942e-14	3.3369574736304696207e-14	7.2622143900229457204e-14
10.186930584867203819	5.0117213547669613652e-14	3.4186954424370245123e-14	7.3470571920621937419e-14
10.441603849488883426	5.2055582624887975861e-14	3.5670022157564669785e-14	7.5968096415714316565e-14
10.70264394572610378	5.4963540931632359855e-14	3.7747746085070979735e-14	8.0031025559377985492e-14
10.970210044369256508	5.8730213991000515766e-14	4.0386125409643435477e-14	8.5406510291405681717e-14
11.244465295478486055	6.3022277047439702571e-14	4.3258590739940079487e-14	9.1815459919204642458e-14
11.52557692786544763	6.7174686591799306121e-14	4.581648139633276541e-14	9.8489416497785566006e-14
11.813716351062081955	7.0357306160079032917e-14	4.7619697883039387078e-14	1.039517416146014779e-13
12.109059259838634404	7.1890433817963398839e-14	4.8401130835949665371e-14	1.0677920918939147822e-13
12.411785741334599109	7.1405417212029460142e-14	4.803827452559683982e-14	1.0613898308331559139e-13
12.722080384867961556	6.8833658607856889977e-14	4.6602481241966453215e-14	1.0166996329535053044e-13
13.040132394489660328	6.4433714225731005031e-14	4.4186164786899344391e-14	9.3959354674612983039e-14
13.366135704351901126	5.881314183421631784e-14	4.0778684140667033428e-14	8.4823375871565476869e-14
13.700289096960696966	5.271076053107024812e-14	3.6533993925115974727e-14	7.6050384238273866885e-14
14.042796324384713813	4.6613838083272346207e-14	3.1846449159327341437e-14	6.8228953563481863822e-14
14.393866232494330504	4.0588159201409388926e-14	2.7000157616769291307e-14	6.1014409276477160101e-14
14.753712888306687034	3.4476306633323520828e-14	2.2071810069016178431e-14	5.3852208557353187599e-14
15.122555710514353322	2.8240601005461902937e-14	1.7183013978553430262e-14	4.6413949621708735875e-14
15.50061960327720989	2.2149901866552636155e-14	1.2667366196765528762e-14	3.873087310155964744e-14
15.888135093359139205	1.6682934522935326058e-14	8.9214512830514958248e-15	3.1196752127681921133e-14
16.285338470693115909	1.225878667198591509e-14	6.1409857076914115824e-15	2.4471291389107247543e-14
16.692471932460442474	9.0316301742271698927e-15	4.2631933918788993779e-15	1.9133624986236090782e-14
17.109783730771951582	6.8830192273895777285e-15	3.0837077073199683222e-15	1.5363308776689726044e-14
17.537528324041250727	5.5503867888698988074e-15	2.3764276993524286806e-15	1.2963488649141857184e-14
17.97596653214228013	4.7536568712388482578e-15	1.9547858964814002256e-15	1.1559963518332723895e-14
18.42536569544583358	4.25666487811488901e-15	1.6868107926550616016e-15	1.0741688376357254034e-14
18.885999837831977999	3.8880294230412894308e-15	1.4903085247114189252e-15	1.0143384771527070128e-14
19.358149833777776649	3.5534673399297868638e-15	1.3241456659600973858e-15	9.53605820005620882e-15
19.84210357962221849	3.2330022904394928084e-15	1.1771395186983938257e-15	8.8794094871137296721e-15
20.338156169112771465	2.9486824685872293714e-15	1.0532439638066516598e-15	8.2551893002349110131e-15
20.846610073340588798	2.7222108480800714703e-15	9.5762865917184197622e-16	7.7383146697106671778e-15
21.367775325174104495	2.5542293315696578918e-15	8.8997788460938438403e-16	7.330617525529002668e-15
21.901969708303454354	2.4340435292948078138e-15	8.4700995157959805777e-16	6.9946851172800661334e-15
22.449518951011040002	2.357756708788161026e-15	8.2720241420588485746e-16	6.7202616945602642365e-15
23.010756924786313959	2.3231603755910887416e-15	8.2714646169668902306e-16	6.5249316543599172782e-15
23.586025847905968789	2.3006944243072443531e-15	8.2922352767956401833e-16	6.3833148208547772382e-15
24.175676494103615966	2.2182368245527861835e-15	7.9662204556257087112e-16	6.1767994461252215392e-15
24.780068406456202013	2.0066922351585459212e-15	6.9950626051077529157e-16	5.7566514468437287733e-15
25.399570116617606885	1.6807099547926089199e-15	5.5398784955136686297e-16	5.0990034428129710947e-15
26.034559369533045725	1.3365366748170878353e-15	4.1009391504426141652e-16	4.3559053611861551806e-15
26.685423353771369648	1.0596012628443597455e-15	3.0250871173946807012e-16	3.7114793480338535632e-15
27.352558937615651047	8.7357990116264785975e-16	2.3497826199483254842e-16	3.2477125213060089389e-15
28.036372911056037793	7.6167016620782343244e-16	1.9673652385813730211e-16	2.9488242991900249131e-15
28.737282233832438294	6.9825003446408620998e-16	1.7658281302929069948e-16	2.7610450998321373645e-15
29.455714289678244455	6.6267238474326180908e-16	1.6688266068483803442e-16	2.6313979397214797383e-15
30.192107146920200478	6.4096800086076035604e-16	1.6301522978009058188e-16	2.5202551852466023898e-15
30.94690982559320247	6.2448750070155014834e-16	1.6218286095340479878e-16	2.4045983418957648579e-15
31.72058257123302738	6.0975099393496423272e-16	1.6294921322921920862e-16	2.2816696517685807122e-15
32.513597135513848002	5.9743130877220661984e-16	1.6479993992077168846e-16	2.165802784108201524e-15
33.326437063901693136	5.8739958795575631692e-16	1.6668457164939040969e-16	2.0700072749165814922e-15
34.159597990499236175	5.7339460579001717216e-16	1.6566924911840506874e-16	1.9845648827327435056e-15
35.013587940261714948	5.439512447044991798e-16	1.5787265287447402713e-16	1.874187525377388535e-15
35.888927638768251427	4.9198205019769681104e-16	1.4169893682192714831e-16	1.7081732802336291519e-15
36.786150829737451318	4.2385634827407091261e-16	1.1994157859067245072e-16	1.497847586159765074e-15
37.705804600480888666	3.5537482471972665729e-16	9.8155974619833766228e-17	1.286638602833021569e-15
38.648449715492908751	2.9947660974703361289e-16	8.0865433907565232618e-17	1.1090800537606045176e-15
39.614660958380227385	2.6026696711312391669e-16	6.944235556219622712e-17	9.7546941807861641728e-16
40.605027482339728806	2.3544893079784736736e-16	6.2921940921382921353e-17	8.8103129372810714177e-16
41.620153169398214743	2.2050373423063414198e-16	5.9630130605673951368e-17	8.153914189989656491e-16
42.660656998633172066	2.1120712817250240212e-16	5.8105762754775961367e-17	7.6771130566062995449e-16
43.72717342359899817	2.0480382913177352036e-16	5.7405008266310075363e-17	7.3067855390682321766e-16
44.820352759188963887	2.0034646579579135589e-16	5.708852366295581944e-17	7.0309589005731811732e-16
45.940861578168686208	1.9804605586919850367e-16	5.6957573563284596777e-17	6.8862203551853421201e-16
47.089383117622901409	1.9786889929332836729e-16	5.6679606192502763992e-17	6.9076170315262570768e-16
48.26661769556346826	1.9853087707812298929e-16	5.5720974049253502753e-17	7.0735499201017332262e-16
49.473283137952549282	1.9804723246836942779e-16	5.3826812762856322299e-17	7.2868342513949379506e-16
50.710115216401362659	1.9552801444825722939e-16	5.15224927107740856e-17	7.4202940157985021565e-16
51.977868096811391752	1.9220293506637294351e-16	4.9922665677127719246e-17	7.3998388802089741457e-16
53.277314799231668019	1.9034329078329164769e-16	5.0047308339880162677e-17	7.239264117895111108e-16
54.609247669212457765	1.9138952597896723911e-16	5.2378963709231522343e-17	6.9932560823073208026e-16
55.97447886094276015	1.9518786186768978661e-16	5.6907749631448186205e-17	6.6947474934813775076e-16
57.373840832466328266	2.0056341464658319052e-16	6.3384369544076862169e-17	6.3463096003068574718e-16
58.808186853277980788	2.062794567422621427e-16	7.1356502793267759428e-17	5.9631866204487472625e-16
60.278391524609922669	2.1139971305914682446e-16	7.9882928713391177735e-17	5.5944166546309948382e-16
61.785351312725168782	2.1495676817345110845e-16	8.7434418512104206291e-17	5.28469371328615907e-16
63.329985095543293028	2.1571857272003903659e-16	9.2440484599509299251e-17	5.0339959616154791506e-16
64.913234722931861143	2.1260692251699574143e-16	9.4010022342785500785e-17	4.8081792106516493081e-16
66.536065591005154829	2.0536732185912430862e-16	9.2138802949867293301e-17	4.5774131568148291294e-16
68.199467230780285831	1.9473314424269839894e-16	8.7584820950241846499e-17	4.3296312140880013462e-16
69.904453911549779832	1.8192588648924620973e-16	8.1690473098870119725e-17	4.0515162808324918073e-16
71.65206525933851367	1.6806888957255349023e-16	7.5818717801800718028e-17	3.7256171643515055524e-16
73.443366890821977222	1.5397577874854998504e-16	7.0574667566375660009e-17	3.3593555958197708682e-16
75.2794510630925231	1.4022995292755245059e-16	6.5696060983557737003e-17	2.9932448618167757674e-16
77.161437339669831204	1.2727432369519650744e-16	6.0778921342370060929e-17	2.6651926546740504052e-16
79.090473273161563839	1.1543002787115836972e-16	5.5904640111760965479e-17	2.3833605417546252887e-16
81.067735104990603645	1.0491140244956165783e-16	5.144725380876153812e-17	2.1393566321045276425e-16
83.094428482615356302	9.5851326301050494841e-17	4.7650150303580915772e-17	1.9281107604355268499e-16
85.171789194680727064	8.8306910780802716639e-17	4.4567716569527099608e-17	1.7497217923389328298e-16
87.301083924547739912	8.2228221696110019138e-17	4.2131545445160013512e-17	1.6048498510707641593e-16
89.483611022661420975	7.7433207123935644102e-17	4.0181862707321690978e-17	1.4921910437979228118e-16
91.720701298227950815	7.3648356610927541094e-17	3.85696053519808989e-17	1.406309549188005552e-16
94.013718830683643546	7.0595361255330037671e-17	3.7240196013170037875e-17	1.3382596130826110992e-16
96.364061801450731082	6.8051470193024906123e-17	3.6194211846599259197e-17	1.2794870668988688563e-16
98.773163346486981595	6.5841716604343031353e-17	3.5392671704888647822e-17	1.2248670237595615521e-16
101.24249243014915578	6.3782626217862083817e-17	3.4708271501091860234e-17	1.1721192762709398052e-16
103.77355474090286691	6.1652497907690373575e-17	3.395937749470730024e-17	1.1192874483197376671e-16
106.36789360942543681	5.9245781516630027622e-17	3.3006451400220369656e-17	1.0634474409123619579e-16
109.02709094966105852	5.6483455355144626733e-17	3.1841448387938865738e-17	1.0019584190978862085e-16
111.7527682234025832	5.3470476840836384951e-17	3.0586634352741004795e-17	9.3475204254704288747e-17
114.54658742898763535	5.0432504637305624397e-17	2.9405273645471536179e-17	8.6495965133912207469e-17
117.41025211471232126	4.7586164232009778635e-17	2.8403043314013258157e-17	7.9725366091266517397e-17
120.3455084175801062	4.5046400759346840163e-17	2.7578270379676457831e-17	7.3578879075283389083e-17
123.35414612801960743	4.2813646445317574522e-17	2.6836350059176486812e-17	6.8303190184310140376e-17
126.43799978122008554	4.0812403595286389338e-17	2.6050378613938866163e-17	6.3939657534700817484e-17
129.59894977575058306	3.8945193334626738055e-17	2.5127929823126345e-17	6.0360248319204675091e-17
