# GEOPSY output version 1.1
# Number of windows = 76
# f0 from average	5.36072
# Number of windows for f0 = 76
# f0 from windows	5.39566	4.52297	6.43674
# f0 amplitude	6.34417e-13
# Position	0 0 0
# Category	Default
# Frequency	Average	Min	Max
1	2.6510369235433479695e-16	1.6526412829246071781e-16	4.2525845400358383853e-16
1.0249999999999999112	2.9082651685647756615e-16	1.8237883938279274206e-16	4.6376028706568830342e-16
1.0506249999999999201	3.1712453872638967419e-16	2.0093602710686314868e-16	5.0049746932112219024e-16
1.0768906249999996572	3.427721101596272971e-16	2.1865587679219471545e-16	5.3734078053134567227e-16
1.1038128906249995431	3.6798754712902868098e-16	2.3603868028608506813e-16	5.7369764429250651165e-16
1.1314082128906244318	3.9577263413072112385e-16	2.5713704517666255282e-16	6.0915368230647208282e-16
1.1596934182128899593	4.3218364495374434042e-16	2.861495632313587683e-16	6.5274502206556179146e-16
1.1886857536682122749	4.8461351642270350141e-16	3.2545438248640180588e-16	7.2160730639228831773e-16
1.2184028975099172598	5.5912313650973810227e-16	3.751492570965367228e-16	8.3331814169111212448e-16
1.2488629699476652135	6.5881553605770050084e-16	4.3314707171387341714e-16	1.0020566659578165362e-15
1.280084544196356644	7.8437941408274472933e-16	4.9920391650718659299e-16	1.2324644196334799456e-15
1.3120866578012655435	9.3630225628360413069e-16	5.7777568548281855119e-16	1.517304963065700751e-15
1.3448888242462970766	1.1165425900371316062e-15	6.7480588179493462747e-16	1.8474458937002467631e-15
1.378511044852454237	1.3288620074871075432e-15	7.9510132391959730521e-16	2.2209423903829838029e-15
1.4129738209737656707	1.5803160976354195335e-15	9.4265400360370388413e-16	2.6493272811638732473e-15
1.448298166498109607	1.8842037603637988287e-15	1.121627848378166111e-15	3.1652422108657311917e-15
1.4845056206605622418	2.2598900323531315731e-15	1.3407181783774499397e-15	3.8092292926987112051e-15
1.5216182611770761035	2.7275625833512243232e-15	1.616495090836222373e-15	4.6023014163619001184e-15
1.559658717706502884	3.3045386100872662631e-15	1.9664136826292210031e-15	5.5532442242553842473e-15
1.5986501856491652784	4.0083527845914615928e-15	2.401328262332461948e-15	6.6908353588176266004e-15
1.6386164402903942161	4.8573995226172768854e-15	2.9266879045368445936e-15	8.0617855035883669518e-15
1.6795818512976541381	5.856087820816124397e-15	3.5443044954042557202e-15	9.6757388112613254173e-15
1.7215713975800952529	6.9749400888067323899e-15	4.2360661742339246732e-15	1.1484662241198672892e-14
1.7646106825195975176	8.1567449422337077612e-15	4.9429600877240756858e-15	1.3460049620447011922e-14
1.8087259495825871447	9.3467940158267450004e-15	5.6162382377335342312e-15	1.5555351229108528406e-14
1.85394409832215179	1.0503296314000762488e-14	6.2922001006392778396e-15	1.7532696305779235395e-14
1.9002927007802052906	1.1584065005054062829e-14	7.0189311062844142972e-15	1.9118375719797332602e-14
1.9478000182997103895	1.256696586201417244e-14	7.7523334724649359779e-15	2.0371754070947432014e-14
1.9964950187572030327	1.3513678015016208216e-14	8.4476345112136084118e-15	2.1617826061380683681e-14
2.0464073942261329364	1.4599002020761934327e-14	9.2240674037128895116e-15	2.3105952143890578659e-14
2.0975675790817858157	1.6054263309559205899e-14	1.030105066888395696e-14	2.502068756842481e-14
2.150006768558830661	1.8065048722245461598e-14	1.1814334612010578848e-14	2.76228832223302335e-14
2.2037569377728010167	2.068090356362082561e-14	1.3750050622514924993e-14	3.1105323460224249997e-14
2.2588508612171209755	2.3784465415364743008e-14	1.5973387989583106906e-14	3.5415204054618716841e-14
2.3153221327475486113	2.717866098274969023e-14	1.8310867737712468732e-14	4.0341049009593345776e-14
2.3732051860662370935	3.078604510676066682e-14	2.0701110103898662637e-14	4.5784045810036335428e-14
2.4325353157178928321	3.481234078178476648e-14	2.3263725829753449237e-14	5.2093937126663539549e-14
2.4933486986108399641	3.9721424036326403479e-14	2.6225123770517140683e-14	6.016335866629681764e-14
2.5556824160761109077	4.6064959705845271415e-14	2.9814972863685121585e-14	7.117163991404258178e-14
2.6195744764780131142	5.4296624409830325413e-14	3.4184563203976399806e-14	8.6241365867715751236e-14
2.6850638383899632089	6.46189787387036153e-14	3.944806354458664246e-14	1.0585088437898844682e-13
2.7521904343497123335	7.6858871420296818205e-14	4.5820823750114377589e-14	1.2892142987689026867e-13
2.8209951952084546534	9.0462969974235445086e-14	5.3569840649961914845e-14	1.5276410826070362527e-13
2.8915200750886658199	1.0481544858258688072e-13	6.2714368192145729495e-14	1.7517960522075100469e-13
2.9638080769658823321	1.1988754172829149776e-13	7.3044339179290872569e-14	1.9677120531371436386e-13
3.0379032788900293127	1.3660510159153784128e-13	8.4695907306749982816e-14	2.2032887271929794633e-13
3.1138508608622794682	1.5627837606490202881e-13	9.822596526868749065e-14	2.486402730548527767e-13
3.1916971323838363439	1.7943262703670203676e-13	1.1377580881628647456e-13	2.8297814781768884477e-13
3.2714895606934319972	2.0540408690972850419e-13	1.3084751452111661531e-13	3.2244279972479264618e-13
3.3532767997107675306	2.3345896183642656807e-13	1.4919609071562999577e-13	3.6531176252885730743e-13
3.4371087197035361527	2.6410980614563217421e-13	1.6978298513217140663e-13	4.1084205020887003783e-13
3.5230364376961245121	2.9850860502267516912e-13	1.9441936639591370711e-13	4.5832567467134974699e-13
3.6111123486385272585	3.3619192471540064923e-13	2.2335637858390472217e-13	5.0602991936219682487e-13
3.7013901573544902845	3.7403659262074618694e-13	2.5288519813493057044e-13	5.5322879176459574899e-13
3.7939249112883519643	4.0836934259341478271e-13	2.7669046397886693148e-13	6.0271509748494621943e-13
3.8887730340705606302	4.3800887131523689686e-13	2.9043568652682474263e-13	6.6056542033490184556e-13
3.9859923599223243684	4.6413476370663566811e-13	2.9473414565285262858e-13	7.3089963296870403738e-13
4.0856421689203816783	4.875845693074021387e-13	2.9441961494051612289e-13	8.0748258662968844927e-13
4.1877832231433913535	5.0770635560938191827e-13	2.9469691544137921551e-13	8.7468083315393464173e-13
4.2924778037219750715	5.2411343616494911149e-13	2.9815409250506872944e-13	9.2131854257194306731e-13
4.3997897488150243817	5.3827189172684786195e-13	3.0527166577416521432e-13	9.4911078199292050213e-13
4.5097844925353998136	5.5249282543943547624e-13	3.1580088742396005372e-13	9.6658475108164328307e-13
4.6225291048487839873	5.6793787203440330275e-13	3.2842161578720207224e-13	9.8213214656358659713e-13
4.7380923324700034982	5.8420091668384762681e-13	3.4086514793458081848e-13	1.0012484794125936932e-12
4.856544640781753408	6.0023482746133439338e-13	3.5225647765344989142e-13	1.022782747665987099e-12
4.9779582568012967769	6.1489108440740154726e-13	3.6365288783844593696e-13	1.039703129902486727e-12
5.1024072132213289521	6.2674066951500221284e-13	3.7499603827788238701e-13	1.0474880444817786719e-12
5.2299673935518615764	6.3407176589733079159e-13	3.8323543175295588136e-13	1.0490862039273288993e-12
5.3607165783906571832	6.3557916937476504217e-13	3.8450330986964862377e-13	1.0506044295953238565e-12
5.4947344928504229244	6.311724466391742853e-13	3.7725095964090507532e-13	1.0560043578833757925e-12
5.6321028551716834087	6.2188951455857770295e-13	3.6294810472996651544e-13	1.0655698797646098066e-12
5.7729054265509747168	6.0913813600937934143e-13	3.4503336562703010551e-13	1.0754011226325090064e-12
5.9172280622147486184	5.9428072083869150913e-13	3.2722849067094658845e-13	1.0792751402435002458e-12
6.0651587637701167566	5.7863981205989330342e-13	3.120575851766144552e-13	1.0729559158487019384e-12
6.2167877328643692536	5.632197967785473086e-13	3.0043304634809165999e-13	1.0558643376259299543e-12
6.3722074261859784627	5.4790816007087314482e-13	2.9149313720559094734e-13	1.0298813713082901353e-12
6.5315126118406272582	5.3103014921426222247e-13	2.8262551689223551303e-13	9.9776206506521830625e-13
6.6948004271366423623	5.1035410219372749928e-13	2.7180262512123942792e-13	9.5827370876122000572e-13
6.8621704378150578663	4.8520002711114557293e-13	2.5998742865145074578e-13	9.0550172956350274611e-13
7.0337246987604338244	4.5744146743668241049e-13	2.4898266297417460919e-13	8.4043078996359603175e-13
7.2095678162294438707	4.300068161080435206e-13	2.3832564997940824983e-13	7.7585380304366290749e-13
7.3898070116351792791	4.0438807437972592117e-13	2.2638218717564658977e-13	7.2236122788964153474e-13
7.5745521869260574732	3.7973712120075168355e-13	2.1319723441081277979e-13	6.7637031791872494136e-13
7.7639159915992088656	3.5425034538623027488e-13	1.9992986784893902935e-13	6.2768664110298115078e-13
7.9580138913891884656	3.2724599556556102943e-13	1.8666715372391352256e-13	5.7369461888342992027e-13
8.1569642386739165119	2.9988211929773855619e-13	1.7307064351696688552e-13	5.1961027963524580738e-13
8.3608883446407649132	2.7413817480441377808e-13	1.6017725462053142486e-13	4.6917859257317060917e-13
8.5699105532567827481	2.5146948467622596165e-13	1.4954958112239082016e-13	4.2284907285413120712e-13
8.7841583170882007181	2.3242590671372410538e-13	1.4133231006730860654e-13	3.8223249932000150313e-13
9.0037622750154060469	2.1714718886010859069e-13	1.345062746037020244e-13	3.5056284005170026885e-13
9.2288563318907907984	2.0583932987525715125e-13	1.2847730712514248097e-13	3.2978454072223722187e-13
9.4595777401880596358	1.9875040902422586247e-13	1.2345125687388554033e-13	3.1997831441806195241e-13
9.6960671836927598832	1.9581540041291086389e-13	1.1939240669125116217e-13	3.2115669749438392499e-13
9.9384688632850775036	1.9635194543943115635e-13	1.1567526964592239411e-13	3.3329584271436707346e-13
10.186930584867203819	1.9901167534309099088e-13	1.1202721456201617691e-13	3.5353594283056018067e-13
10.441603849488883426	2.0202262838168421522e-13	1.0898504344056956449e-13	3.7448388411662945551e-13
10.70264394572610378	2.0374883323664336982e-13	1.0719076575255237972e-13	3.8728697153938381308e-13
10.970210044369256508	2.0344381041499248209e-13	1.0672702297878036379e-13	3.8780603862997756314e-13
11.244465295478486055	2.0164916069917830413e-13	1.071328372638472089e-13	3.7955107928803886208e-13
11.52557692786544763	1.9973964092380340553e-13	1.077919187961922338e-13	3.7011980677144466308e-13
11.813716351062081955	1.9891204391417046248e-13	1.0811549247630194776e-13	3.6596051414912094775e-13
12.109059259838634404	1.9940475227355345135e-13	1.0762819316658250301e-13	3.694408877396541723e-13
12.411785741334599109	2.0041412511034854886e-13	1.0636923615456669598e-13	3.7760750190384838365e-13
12.722080384867961556	2.00538105205919786e-13	1.0480049889605639035e-13	3.8373416217672076346e-13
13.040132394489660328	1.9834314431479541672e-13	1.0304774043655864469e-13	3.8176482793331547495e-13
13.366135704351901126	1.9283890049644254746e-13	1.0065477210644975327e-13	3.6944936406342542082e-13
13.700289096960696966	1.8393518634975330151e-13	9.7106159050890432615e-14	3.4840377900013585292e-13
14.042796324384713813	1.7266304747673472802e-13	9.2431928332224274037e-14	3.2253495628479381303e-13
14.393866232494330504	1.607127323519021324e-13	8.7154296923768144767e-14	2.9635466352973733339e-13
14.753712888306687034	1.4947542881694220816e-13	8.1527793492718602812e-14	2.7405260050370726682e-13
15.122555710514353322	1.3938720646764978086e-13	7.5220652177042894606e-14	2.5829067901627200501e-13
15.50061960327720989	1.3007980721372476253e-13	6.8190326141608738778e-14	2.4814012781843851858e-13
15.888135093359139205	1.2105312560743005178e-13	6.1258004418147021202e-14	2.3921541941361695092e-13
16.285338470693115909	1.1213218286958643889e-13	5.5236465707142386467e-14	2.2763271100222719621e-13
16.692471932460442474	1.0339212629273120913e-13	5.0182177168131331882e-14	2.1302247894738259827e-13
17.109783730771951582	9.4901217729820668153e-14	4.5701230024603558444e-14	1.9706780587205768262e-13
17.537528324041250727	8.6683781835149909882e-14	4.1508935766904874603e-14	1.8102314343686086081e-13
17.97596653214228013	7.8848582090500788861e-14	3.7562276940565244094e-14	1.6551443107455256555e-13
18.42536569544583358	7.1588748393072310935e-14	3.3898857643892293356e-14	1.5118352808003837167e-13
18.885999837831977999	6.5016583576644258318e-14	3.0514909125884934345e-14	1.3852756770600999371e-13
19.358149833777776649	5.905044377447926468e-14	2.7361199835808903287e-14	1.2744159360290162081e-13
19.84210357962221849	5.3465456478091545783e-14	2.4339299572555829048e-14	1.1744606815365841199e-13
20.338156169112771465	4.8013272557730295351e-14	2.1328593117447138792e-14	1.0808375071945766622e-13
20.846610073340588798	4.2525953275056908533e-14	1.8305857239848397625e-14	9.8791150737024990004e-14
21.367775325174104495	3.7014175828853247735e-14	1.5371766596306479806e-14	8.9127635636782215117e-14
21.901969708303454354	3.1708612711077549522e-14	1.2665025327488370099e-14	7.9386822691850004229e-14
22.449518951011040002	2.693367132136338224e-14	1.0310370276301864538e-14	7.0358544980154461639e-14
23.010756924786313959	2.2874327349395483234e-14	8.3742163180177310859e-15	6.2481649842448493656e-14
23.586025847905968789	1.9469790461563826322e-14	6.8269878114720481004e-15	5.5525621413913932322e-14
24.175676494103615966	1.6531520922172621442e-14	5.5742921524431098272e-15	4.9027065056224690214e-14
24.780068406456202013	1.3935723271904947797e-14	4.5306191184735995157e-15	4.2864866375380081232e-14
25.399570116617606885	1.1686225139723109689e-14	3.6601271152825623867e-15	3.7312326516220830922e-14
26.034559369533045725	9.8246482746986120658e-15	2.9567522438300886735e-15	3.2645181524071318831e-14
26.685423353771369648	8.3353944518027884916e-15	2.4056727199175654198e-15	2.8881235627731405545e-14
27.352558937615651047	7.1416952678571091777e-15	1.9754259929418139414e-15	2.5819145582354872752e-14
28.036372911056037793	6.1577132241827494076e-15	1.6344146915835613639e-15	2.319939507796362495e-14
28.737282233832438294	5.3283860584559859309e-15	1.3617157720208061861e-15	2.084994429183589681e-14
29.455714289678244455	4.6339744717055699573e-15	1.1459133157803935799e-15	1.8739392507883386529e-14
30.192107146920200478	4.0757307277428215751e-15	9.8033772622137863342e-16	1.6944753344436551433e-14
30.94690982559320247	3.6630483266001891e-15	8.6103760130267897052e-16	1.5583434478016098502e-14
31.72058257123302738	3.4060865510574052543e-15	7.8735156494015028555e-16	1.4734746344443986111e-14
32.513597135513848002	3.3033268047854169756e-15	7.5868646429002395639e-16	1.4382710767649204386e-14
33.326437063901693136	3.3205245916055770098e-15	7.6634314153080447678e-16	1.4387658694814821424e-14
34.159597990499236175	3.3734868689741827211e-15	7.8622763718043549376e-16	1.4474705692048170516e-14
35.013587940261714948	3.3484959239993254288e-15	7.834483022984568365e-16	1.4311633480020857842e-14
35.888927638768251427	3.1801960584943538519e-15	7.3500595758542656013e-16	1.3759952373294278648e-14
36.786150829737451318	2.9126406337736449392e-15	6.4924367458943271097e-16	1.3066704834473901386e-14
37.705804600480888666	2.6536669603346136371e-15	5.5663829400685017252e-16	1.2650851391630788293e-14
38.648449715492908751	2.4815440618752641177e-15	4.8409101041717859671e-16	1.2720874377984230398e-14
39.614660958380227385	2.4068418221443692224e-15	4.4105612122435686373e-16	1.3134128012422473373e-14
40.605027482339728806	2.3903675867512537258e-15	4.2318087446804258981e-16	1.350216312817441919e-14
41.620153169398214743	2.3795233747822651639e-15	4.2088594227199258676e-16	1.3452888116363114092e-14
42.660656998633172066	2.3450936179951685323e-15	4.2609126776809970939e-16	1.2906774893483042165e-14
43.72717342359899817	2.3011375731861754721e-15	4.3700453536885106901e-16	1.2117114817263282278e-14
44.820352759188963887	2.2924483811497871559e-15	4.5855058826536835046e-16	1.1460719307146473083e-14
45.940861578168686208	2.3570537549567507263e-15	4.9545146828808656575e-16	1.1213413945370094288e-14
47.089383117622901409	2.4865373516413210142e-15	5.415781164572740514e-16	1.1416391861533442826e-14
48.26661769556346826	2.6071902710976727537e-15	5.7761217204542574245e-16	1.176817497739950304e-14
49.473283137952549282	2.6176897905997494308e-15	5.8558364170343978927e-16	1.1701658570716028114e-14
50.710115216401362659	2.4804712969125542326e-15	5.6399492719409987683e-16	1.0909207792731746457e-14
51.977868096811391752	2.2569332655692995937e-15	5.254171628552122173e-16	9.6946733478460298951e-15
53.277314799231668019	2.0333521924190950141e-15	4.841896751132767225e-16	8.5390526707292223264e-15
54.609247669212457765	1.8496603639843357643e-15	4.4665677071811914698e-16	7.6596699890927658637e-15
55.97447886094276015	1.7026074580964229567e-15	4.1131148197372949347e-16	7.0478755965064786549e-15
57.373840832466328266	1.5835060895995756661e-15	3.7746281033935140622e-16	6.643016125335956458e-15
58.808186853277980788	1.5004614922572356071e-15	3.5088382560919013842e-16	6.4163250780740560274e-15
60.278391524609922669	1.4710583442346946663e-15	3.4023015461200352679e-16	6.3604375532508241182e-15
61.785351312725168782	1.5026911387140338203e-15	3.5051610394525208238e-16	6.4421595269196944228e-15
63.329985095543293028	1.5770181549405000403e-15	3.7894409199381133033e-16	6.5629371549947657352e-15
64.913234722931861143	1.6416713244182488741e-15	4.1187459285567533016e-16	6.5434595485270682186e-15
66.536065591005154829	1.6209722003354555939e-15	4.2574941104121403148e-16	6.1715901563655061358e-15
68.199467230780285831	1.4623467146712840151e-15	4.0004947072932494074e-16	5.345483672335081497e-15
69.904453911549779832	1.1886771632232804706e-15	3.3584948933541162451e-16	4.2071030126159703608e-15
71.65206525933851367	8.8589170319912923308e-16	2.5587600979901377905e-16	3.0671265759283346983e-15
73.443366890821977222	6.3156466933867749008e-16	1.8397788400732156609e-16	2.1680536968291226323e-15
75.2794510630925231	4.521306918455941115e-16	1.3058551024803587708e-16	1.5654276046438335569e-15
77.161437339669831204	3.3631153048729117131e-16	9.4858183751457219655e-17	1.1923636007522298093e-15
79.090473273161563839	2.625998263229787047e-16	7.2022088567951922207e-17	9.5746555197155861412e-16
81.067735104990603645	2.1356301376446565101e-16	5.7552327656162060117e-17	7.9248160249306662117e-16
83.094428482615356302	1.7868673738735021533e-16	4.8312723036848761953e-17	6.6088078069586806882e-16
85.171789194680727064	1.5277782445782749782e-16	4.2458110601136709775e-17	5.497433426875536768e-16
87.301083924547739912	1.3351668288504483599e-16	3.8956370012912441419e-17	4.5760692289134750212e-16
89.483611022661420975	1.1962939817586239186e-16	3.7129774714654862794e-17	3.8543710587800848476e-16
91.720701298227950815	1.1004223904883515469e-16	3.6407975221262452894e-17	3.3260004988712165811e-16
94.013718830683643546	1.0363197028815832608e-16	3.6273274056733640413e-17	2.9607432869192771507e-16
96.364061801450731082	9.9198526249546204096e-17	3.6313821008720070609e-17	2.7098078188243908127e-16
98.773163346486981595	9.5549943465198131461e-17	3.63043224342436465e-17	2.5147946811950375285e-16
101.24249243014915578	9.170065174959935195e-17	3.6205052439874153602e-17	2.322606643165665386e-16
103.77355474090286691	8.7096466832337522561e-17	3.6025685801860449e-17	2.1056627697243511215e-16
106.36789360942543681	8.1720752299164382609e-17	3.5713800483471492758e-17	1.8699441857027004879e-16
109.02709094966105852	7.6011560343161240231e-17	3.5211840540718364071e-17	1.6408563758888841936e-16
111.7527682234025832	7.0591120951632208504e-17	3.4534004860756963306e-17	1.4429564069676052576e-16
114.54658742898763535	6.5923429510521711494e-17	3.3721678765927072985e-17	1.2887551027915879929e-16
117.41025211471232126	6.2089429492232600247e-17	3.2798237792861579923e-17	1.1753976780758544617e-16
120.3455084175801062	5.8803805556105061227e-17	3.1825632000604437843e-17	1.0865102530609728513e-16
123.35414612801960743	5.5646748288954344216e-17	3.0962624277119424493e-17	1.0000962991442947402e-16
126.43799978122008554	5.2343766384078753218e-17	3.0372809992036135246e-17	9.0207981414607903997e-17
129.59894977575058306	4.8883890260566279991e-17	3.0030384451434905361e-17	7.957389725967712943e-17
