# GEOPSY output version 1.1
# Number of windows = 77
# f0 from average	4.08564
# Number of windows for f0 = 77
# f0 from windows	4.18241	3.73816	4.67946
# f0 amplitude	4.99757e-13
# Position	0 0 0
# Category	Default
# Frequency	Average	Min	Max
1	7.9489220670859647951e-16	4.922116137423335247e-16	1.2837031931896456236e-15
1.0249999999999999112	8.1333678973285285099e-16	5.0714304900426173857e-16	1.3043986994040095635e-15
1.0506249999999999201	8.2994254758391011615e-16	5.1669520315594994238e-16	1.3330966265660773598e-15
1.0768906249999996572	8.4577673669203772048e-16	5.2811997971146406045e-16	1.354499575494671499e-15
1.1038128906249995431	8.6605015535262635964e-16	5.5179489359432781137e-16	1.3592783845834747034e-15
1.1314082128906244318	8.9648733460878670524e-16	5.9153444322170326197e-16	1.358652146672630955e-15
1.1596934182128899593	9.3883053379033526207e-16	6.4114617043487325549e-16	1.3747298382507886888e-15
1.1886857536682122749	9.901680476047893553e-16	6.9250452606533918454e-16	1.415778129376405892e-15
1.2184028975099172598	1.0476841917406286196e-15	7.4471326501401552387e-16	1.4739124669715082293e-15
1.2488629699476652135	1.1145092061408129582e-15	7.9980295925976956844e-16	1.5530459798776401759e-15
1.280084544196356644	1.1998918352253565806e-15	8.5957777774040581707e-16	1.6749390846575360791e-15
1.3120866578012655435	1.3132074652547286659e-15	9.3146115780397487087e-16	1.8514071492433308945e-15
1.3448888242462970766	1.4575260363141087182e-15	1.0288545298181832568e-15	2.0648032204406318246e-15
1.378511044852454237	1.628172755175564234e-15	1.1612965379835168982e-15	2.2827472863211230706e-15
1.4129738209737656707	1.817415626727370554e-15	1.3219869514422566118e-15	2.498511469170967712e-15
1.448298166498109607	2.0224278965660636232e-15	1.4897518222104326959e-15	2.7455677756713460395e-15
1.4845056206605622418	2.2509405218732939438e-15	1.6568203904144293577e-15	3.0581065167503448347e-15
1.5216182611770761035	2.5218280682047310113e-15	1.8445550508623628662e-15	3.4477782610022778603e-15
1.559658717706502884	2.8638672028694723154e-15	2.0850466389890396877e-15	3.9335980319596727012e-15
1.5986501856491652784	3.3117546965289995585e-15	2.4052455759780993609e-15	4.5599165754714398188e-15
1.6386164402903942161	3.892891016748404342e-15	2.8294692251951980555e-15	5.3559870287102867983e-15
1.6795818512976541381	4.603747020788811659e-15	3.3789245299507143978e-15	6.2725540163902409315e-15
1.7215713975800952529	5.3955018666873970148e-15	4.0289462901183985552e-15	7.2255717245045946334e-15
1.7646106825195975176	6.2018254637267525344e-15	4.681500283618179956e-15	8.2158788320745376458e-15
1.8087259495825871447	7.0000097968997600392e-15	5.276843904169697923e-15	9.2858795989726563903e-15
1.85394409832215179	7.8359706410277178194e-15	5.8793747674830239623e-15	1.044370163756968539e-14
1.9002927007802052906	8.7758361250499358211e-15	6.5581397478866051027e-15	1.1743467302377943485e-14
1.9478000182997103895	9.8413088270071973906e-15	7.3028049886444696892e-15	1.3262213571241358568e-14
1.9964950187572030327	1.1007855631543472387e-14	8.0903084913163293853e-15	1.4977535867138233479e-14
2.0464073942261329364	1.2269635266643884748e-14	8.9587570498728247676e-15	1.6804111188460952695e-14
2.0975675790817858157	1.3692139427800046175e-14	9.9694141932493043157e-15	1.8804984774056565413e-14
2.150006768558830661	1.5389292256424509276e-14	1.1173057767525145898e-14	2.119655344860046711e-14
2.2037569377728010167	1.7463108316448997256e-14	1.265324921380616907e-14	2.4101331359164494987e-14
2.2588508612171209755	1.9986854886067290207e-14	1.4502668703382159565e-14	2.7544886834762401377e-14
2.3153221327475486113	2.3034667237192595249e-14	1.6767776541823262968e-14	3.1643783742271832771e-14
2.3732051860662370935	2.6688528213142524588e-14	1.9440537423805687292e-14	3.6638778170375743589e-14
2.4325353157178928321	3.0999914636253393511e-14	2.2370128378338030202e-14	4.2958837392527904971e-14
2.4933486986108399641	3.5991601992622214842e-14	2.5282375778654085367e-14	5.1237092009724418666e-14
2.5556824160761109077	4.1767957061673193038e-14	2.8181789573832855073e-14	6.190388415665495332e-14
2.6195744764780131142	4.8621108596272784855e-14	3.1531147251143102945e-14	7.4973872098638856829e-14
2.6850638383899632089	5.6942048949081097148e-14	3.5896625367022445047e-14	9.0325954191178005623e-14
2.7521904343497123335	6.6953491251140966417e-14	4.172494473898834019e-14	1.0743621156981066686e-13
2.8209951952084546534	7.8575969124867787381e-14	4.9429819081835513646e-14	1.2490806235180144725e-13
2.8915200750886658199	9.1709852967506544111e-14	5.9251386361831744136e-14	1.4194937279542930489e-13
2.9638080769658823321	1.0679014182257683138e-13	7.1031157309204875129e-14	1.6055115561249935735e-13
3.0379032788900293127	1.2504635676087788294e-13	8.4839117551197949165e-14	1.8430874566478746532e-13
3.1138508608622794682	1.4816850372816772624e-13	1.0178222992011214335e-13	2.1569487634801727816e-13
3.1916971323838363439	1.7765251895375287159e-13	1.2323744495335778463e-13	2.5609438350947906002e-13
3.2714895606934319972	2.1431070482175122712e-13	1.4960350915416629838e-13	3.0700535342299965616e-13
3.3532767997107675306	2.5808958575345415867e-13	1.8006059359102158788e-13	3.6993232636833298273e-13
3.4371087197035361527	3.0777553877665071195e-13	2.1289775616583997557e-13	4.4493555956254198084e-13
3.5230364376961245121	3.6013586790650524554e-13	2.4576152350487551268e-13	5.27738604087058442e-13
3.6111123486385272585	4.0931856681965564681e-13	2.7589675154862166083e-13	6.0726227548123481842e-13
3.7013901573544902845	4.4858753110316615024e-13	3.0006249763355467489e-13	6.7062953434115281825e-13
3.7939249112883519643	4.7446210344097732143e-13	3.145548380762560232e-13	7.1565991157021491467e-13
3.8887730340705606302	4.8896452517728943848e-13	3.1780987665230818181e-13	7.5229350767917889598e-13
3.9859923599223243684	4.9679694624435669126e-13	3.1355074172124350817e-13	7.8713641193404555467e-13
4.0856421689203816783	5.0068427022718976401e-13	3.077267078121364023e-13	8.1463432353740867073e-13
4.1877832231433913535	4.9970633390950714218e-13	3.0308521933336134246e-13	8.2388187948759547129e-13
4.2924778037219750715	4.9157629465048171198e-13	2.9869902312699770483e-13	8.0899914212158701931e-13
4.3997897488150243817	4.7564379688723913428e-13	2.9239820303008013495e-13	7.7372917881453370558e-13
4.5097844925353998136	4.5343496632578682566e-13	2.8236409204127190589e-13	7.2814948671595010048e-13
4.6225291048487839873	4.270592168638087392e-13	2.6774062589822780914e-13	6.811800566181347158e-13
4.7380923324700034982	3.9790424920539490562e-13	2.4933032442093782094e-13	6.3501217472612100481e-13
4.856544640781753408	3.6651091302901612296e-13	2.2902606119346159196e-13	5.8652822595543976395e-13
4.9779582568012967769	3.3309474233284075148e-13	2.0761315479921915229e-13	5.3441752030155499409e-13
5.1024072132213289521	2.9819193665535289359e-13	1.8449786787282835352e-13	4.8194828542712567585e-13
5.2299673935518615764	2.631284717464215663e-13	1.5999234222781823595e-13	4.3274941587528707659e-13
5.3607165783906571832	2.2991247779380831658e-13	1.3605917792774992041e-13	3.8850556243517773747e-13
5.4947344928504229244	2.0052923007111633272e-13	1.1485968171555417209e-13	3.5009649610990735004e-13
5.6321028551716834087	1.7617451112937899194e-13	9.7769759641122702322e-14	3.1745458396955179471e-13
5.7729054265509747168	1.5701159044810796499e-13	8.5154304040952827344e-14	2.8950550195546569422e-13
5.9172280622147486184	1.4247527756027650575e-13	7.6473399286876211671e-14	2.6544138099221945896e-13
6.0651587637701167566	1.3168919337147692764e-13	7.069361554134860066e-14	2.4531272757844596532e-13
6.2167877328643692536	1.2371770156303830647e-13	6.6726119310377785271e-14	2.2938648070996822373e-13
6.3722074261859784627	1.1762785628562677504e-13	6.3724597372790336139e-14	2.1712671628836389104e-13
6.5315126118406272582	1.1251807166591704358e-13	6.1274106977876161805e-14	2.0661772281703952239e-13
6.6948004271366423623	1.0765083323043541711e-13	5.9231257223245375038e-14	1.9565179667770107279e-13
6.8621704378150578663	1.0262122026149208332e-13	5.7215694718000382943e-14	1.8405989649977149854e-13
7.0337246987604338244	9.7347752106614624566e-14	5.4590239917410666801e-14	1.7359485605023855461e-13
7.2095678162294438707	9.187157193013583879e-14	5.1165087857803087555e-14	1.6496376889592100675e-13
7.3898070116351792791	8.61638112027706601e-14	4.7374711960377638636e-14	1.5671234829239744338e-13
7.5745521869260574732	8.0116943269860977455e-14	4.3666773046961197764e-14	1.4699333500103473239e-13
7.7639159915992088656	7.3712269230698721643e-14	4.0229980794843152806e-14	1.3506093037547515119e-13
7.9580138913891884656	6.7202242655184670271e-14	3.715358904805255534e-14	1.215533016755225223e-13
8.1569642386739165119	6.1096828408509199159e-14	3.4497685977627038378e-14	1.082050095765751757e-13
8.3608883446407649132	5.5931438849632194539e-14	3.2287870434245163971e-14	9.6888577961839814409e-14
8.5699105532567827481	5.2024364347104817733e-14	3.0614508216849315665e-14	8.8406923493571415312e-14
8.7841583170882007181	4.9367272820718220676e-14	2.9625415847672897462e-14	8.2264756663210266159e-14
9.0037622750154060469	4.7666697151239922292e-14	2.930099325992091815e-14	7.7543924779366216888e-14
9.2288563318907907984	4.6493546460285032578e-14	2.9330213852802523697e-14	7.3700446689656016541e-14
9.4595777401880596358	4.5477932103057298892e-14	2.9265531912409663331e-14	7.0671611729472058272e-14
9.6960671836927598832	4.4437262519854475808e-14	2.8789359745404487369e-14	6.8590281886128800015e-14
9.9384688632850775036	4.3333960068353740557e-14	2.7844733403004977208e-14	6.743939933010897029e-14
10.186930584867203819	4.2124814515829954086e-14	2.6574221602256600761e-14	6.6775238972282557334e-14
10.441603849488883426	4.068618169867725468e-14	2.5172463922334333786e-14	6.576095952804416577e-14
10.70264394572610378	3.8899496350469335343e-14	2.3768950644345537028e-14	6.3661658394673379089e-14
10.970210044369256508	3.6811765500182994267e-14	2.2429095689508207478e-14	6.0417330150067039687e-14
11.244465295478486055	3.469568937853080934e-14	2.1206469405198741814e-14	5.6765265280621749778e-14
11.52557692786544763	3.2916881899016141944e-14	2.0133305675195218379e-14	5.3817347803381539772e-14
11.813716351062081955	3.1713736340351381474e-14	1.918752248209549479e-14	5.2417453769960779333e-14
12.109059259838634404	3.1048208949807290632e-14	1.8325791000480908294e-14	5.260298335638534198e-14
12.411785741334599109	3.0601890307465395347e-14	1.7519798570805784226e-14	5.3452423360086239385e-14
12.722080384867961556	2.9919326333488229373e-14	1.6718874348954458992e-14	5.3542246299957553897e-14
13.040132394489660328	2.8645148835650522964e-14	1.5841434211957483356e-14	5.1797365114656374841e-14
13.366135704351901126	2.6713367206305308569e-14	1.4834753700641628728e-14	4.8103527830599795112e-14
13.700289096960696966	2.4354430988982594093e-14	1.3694564124202657914e-14	4.3311952349680944448e-14
14.042796324384713813	2.1936799576652091169e-14	1.244697806808728497e-14	3.8661848123602618531e-14
14.393866232494330504	1.9780059574966787253e-14	1.1169314095275591026e-14	3.5029076400915879232e-14
14.753712888306687034	1.8042429921971659239e-14	9.9851688230819998e-15	3.2601279283005766369e-14
15.122555710514353322	1.6694455660090351692e-14	9.0003428657838438561e-15	3.0966025843999911691e-14
15.50061960327720989	1.5561139561144209951e-14	8.2436832454806703888e-15	2.9373892376827764783e-14
15.888135093359139205	1.4419881101807724594e-14	7.6315522560921877023e-15	2.7246484596142396909e-14
16.285338470693115909	1.3121774949763382084e-14	6.9998524718686504466e-15	2.4597800957121186713e-14
16.692471932460442474	1.1661686592678222413e-14	6.2388975410293571022e-15	2.179791113598143194e-14
17.109783730771951582	1.0143802115815179762e-14	5.3946939799850078734e-15	1.9073690138231433106e-14
17.537528324041250727	8.6897084241829436654e-15	4.5868769966563450594e-15	1.6462406241187768046e-14
17.97596653214228013	7.3785820941331015224e-15	3.890606914081175927e-15	1.3993568335782194458e-14
18.42536569544583358	6.2454410765949274358e-15	3.3218148564660172791e-15	1.1742236074745017664e-14
18.885999837831977999	5.2988613406057087399e-15	2.8633313403989889658e-15	9.8060364550940252533e-15
19.358149833777776649	4.5283322475665482597e-15	2.4850513408821332312e-15	8.2516576647756669778e-15
19.84210357962221849	3.9062222853816021747e-15	2.1598441471066250929e-15	7.064663699578781434e-15
20.338156169112771465	3.3965375549752591658e-15	1.8727856876514879127e-15	6.1600574152316811769e-15
20.846610073340588798	2.9697358047872327554e-15	1.6220063542499640363e-15	5.43729728747791615e-15
21.367775325174104495	2.6123168364371179976e-15	1.4135669131338773235e-15	4.8276450096045223099e-15
21.901969708303454354	2.3254036443431040998e-15	1.255104467152221802e-15	4.3084079856663883755e-15
22.449518951011040002	2.1152636362105584506e-15	1.1523066327271992352e-15	3.8829423727998135971e-15
23.010756924786313959	1.9816480256537906874e-15	1.1057913571970428211e-15	3.5512385514854593615e-15
23.586025847905968789	1.9103529328025686206e-15	1.1064262057410332621e-15	3.298410963994786213e-15
24.175676494103615966	1.8739093966216402848e-15	1.1331690429667559874e-15	3.0988637119430193854e-15
24.780068406456202013	1.8426762165156917923e-15	1.1604116441606442619e-15	2.9260785653082665999e-15
25.399570116617606885	1.8010845685065273877e-15	1.1721298710153215729e-15	2.7675308881108967106e-15
26.034559369533045725	1.7535478888270833973e-15	1.1667330328912412602e-15	2.6355045342206877648e-15
26.685423353771369648	1.7121677830210627216e-15	1.1498783670139247743e-15	2.5494161828855074659e-15
27.352558937615651047	1.6801870961537719105e-15	1.1280716098795331629e-15	2.5025261280913857174e-15
28.036372911056037793	1.6491160761999106654e-15	1.1028185130851595785e-15	2.4660302674579630917e-15
28.737282233832438294	1.6106113164272942349e-15	1.0694676712500165925e-15	2.4255701058935787089e-15
29.455714289678244455	1.569752388101390361e-15	1.030172844819895181e-15	2.3919506055130195536e-15
30.192107146920200478	1.5470329764925245093e-15	1.0012779248539111948e-15	2.3902564622150336206e-15
30.94690982559320247	1.5705257077532751199e-15	1.0018222582566096727e-15	2.4620644813844173599e-15
31.72058257123302738	1.6683230045142617683e-15	1.0414946681880806077e-15	2.6724108460715277317e-15
32.513597135513848002	1.857719156075166429e-15	1.1141462593694298066e-15	3.0975470534737956893e-15
33.326437063901693136	2.117163431556464421e-15	1.1979833094517716367e-15	3.7416055470515681572e-15
34.159597990499236175	2.3485337014502443015e-15	1.2644787555989767767e-15	4.3619637913448931547e-15
35.013587940261714948	2.39949604603006929e-15	1.2873569761525443508e-15	4.4724046100416642982e-15
35.888927638768251427	2.2006243321864836618e-15	1.2536156070061810094e-15	3.8630242191834250656e-15
36.786150829737451318	1.8562291152078628291e-15	1.1699953195515104229e-15	2.9449575315105941694e-15
37.705804600480888666	1.5311276974855945258e-15	1.0553565885842728252e-15	2.2213837970656077515e-15
38.648449715492908751	1.3128784136980058191e-15	9.3952588088889838455e-16	1.8345952615200161791e-15
39.614660958380227385	1.2045990784993187975e-15	8.6091170272809411154e-16	1.685491015307644034e-15
40.605027482339728806	1.1728718086788423159e-15	8.2987548800152700914e-16	1.6576321381732964187e-15
41.620153169398214743	1.1791893897304285276e-15	8.2717111648727514597e-16	1.6810156799934769466e-15
42.660656998633172066	1.1966854337325227469e-15	8.3277175598763995027e-16	1.7196260764262167507e-15
43.72717342359899817	1.2215693776799050164e-15	8.4424869243918050148e-16	1.7675262725891286895e-15
44.820352759188963887	1.2714016209959266528e-15	8.7691273557755453766e-16	1.8433556912666246786e-15
45.940861578168686208	1.3643762017506199942e-15	9.4231270410670281347e-16	1.9754826734169326877e-15
47.089383117622901409	1.4884832784634723892e-15	1.0200911996669726627e-15	2.1719454799616780705e-15
48.26661769556346826	1.5822479089956747598e-15	1.067562964972859827e-15	2.3450686541798784181e-15
49.473283137952549282	1.5678331455280559009e-15	1.0625272356839528928e-15	2.3134473071968918767e-15
50.710115216401362659	1.4320153919461506066e-15	1.0078745625630086017e-15	2.0346461344910537103e-15
51.977868096811391752	1.2446020531999949105e-15	9.151982490849105829e-16	1.6925669081846395352e-15
53.277314799231668019	1.0824592091155319002e-15	8.0718043065990626156e-16	1.4516183679541026594e-15
54.609247669212457765	9.7472732118296916111e-16	7.1497948553550799797e-16	1.3288400155270505047e-15
55.97447886094276015	9.1129713040681355836e-16	6.4902117065025412891e-16	1.2795614341141643918e-15
57.373840832466328266	8.6943541807393774349e-16	6.0185939708622519093e-16	1.2559709956528378099e-15
58.808186853277980788	8.3208647044300655706e-16	5.676430157313332627e-16	1.2197241489922598447e-15
60.278391524609922669	7.9388416115210249421e-16	5.4436795932709462801e-16	1.1577684735656484872e-15
61.785351312725168782	7.5709390873815143568e-16	5.2982042021019881393e-16	1.0818593711827996084e-15
63.329985095543293028	7.2501883105080592485e-16	5.2050681387634005095e-16	1.0098855411010229691e-15
64.913234722931861143	6.9859252254646283975e-16	5.1248671786484952013e-16	9.5228128953486643814e-16
66.536065591005154829	6.7622218060113929772e-16	5.0221140274569435152e-16	9.1052579658075122782e-16
68.199467230780285831	6.5539167271929660727e-16	4.8781360804740722104e-16	8.8053764303363534931e-16
69.904453911549779832	6.3429794337771430078e-16	4.6975143155486538398e-16	8.5648250105695913873e-16
71.65206525933851367	6.123758493519285412e-16	4.5007065489324701838e-16	8.3321180084145609159e-16
73.443366890821977222	5.8989467046489570345e-16	4.3088509570599647292e-16	8.0758356627011363463e-16
75.2794510630925231	5.6746962902153292177e-16	4.1304189711962789275e-16	7.7963466202211965797e-16
77.161437339669831204	5.4584655654257639455e-16	3.963147916504011435e-16	7.5179748413785063104e-16
79.090473273161563839	5.257420718588340325e-16	3.8048134687494820728e-16	7.2646064884033488479e-16
81.067735104990603645	5.0752486706180613045e-16	3.6559076323247712257e-16	7.0456235931297139718e-16
83.094428482615356302	4.9093276457065965887e-16	3.515676658891350736e-16	6.8554364554388086834e-16
85.171789194680727064	4.7515738971365334291e-16	3.3810085852512317346e-16	6.6777276456609790317e-16
87.301083924547739912	4.5929220957464867598e-16	3.2482739960457072083e-16	6.4941976579796717292e-16
89.483611022661420975	4.4285201420709664583e-16	3.1157367464095669518e-16	6.2944312196234125791e-16
91.720701298227950815	4.2601345707064575102e-16	2.9856667762647545062e-16	6.0786242807824149008e-16
94.013718830683643546	4.0940564416220790245e-16	2.8632707113803632596e-16	5.8538992071436842199e-16
96.364061801450731082	3.936486253312198644e-16	2.7522321301804409536e-16	5.6303114307076895967e-16
98.773163346486981595	3.79011213259126468e-16	2.6515390872841234375e-16	5.4175893715860737337e-16
101.24249243014915578	3.6536468813013610446e-16	2.5563302711083925825e-16	5.2219917293609900891e-16
103.77355474090286691	3.5233819496641025503e-16	2.4612214541117220317e-16	5.0439266009483164373e-16
106.36789360942543681	3.3953596408117773946e-16	2.3636646767179623277e-16	4.8773699603029963644e-16
109.02709094966105852	3.2675037087364384627e-16	2.2655375892221895268e-16	4.7126035504323246186e-16
111.7527682234025832	3.1409054370162561213e-16	2.171953148247920845e-16	4.5421269663373936248e-16
114.54658742898763535	3.0190266012271086297e-16	2.0878282066114259663e-16	4.3655515286432029555e-16
117.41025211471232126	2.9048943521950805692e-16	2.0145743166687262617e-16	4.1886820096905253205e-16
120.3455084175801062	2.7983490406500084473e-16	1.949281496181483112e-16	4.0172532128616476248e-16
123.35414612801960743	2.6959233101319488481e-16	1.8867912353802984656e-16	3.8520438074050509046e-16
126.43799978122008554	2.5936852953543249673e-16	1.8230044445768442418e-16	3.690173894720684525e-16
129.59894977575058306	2.4904467998535765237e-16	1.7573200045942266403e-16	3.5294227839471194392e-16
