# GEOPSY output version 1.1
# Number of windows = 78
# f0 from average	3.35328
# Number of windows for f0 = 78
# f0 from windows	3.49084	3.03333	4.01735
# f0 amplitude	3.28016e-13
# Position	0 0 0
# Category	Default
# Frequency	Average	Min	Max
1	6.1800283523058253023e-16	4.0318300624990856809e-16	9.4728075943832052714e-16
1.0249999999999999112	7.0400361029430284447e-16	4.6473649910863014379e-16	1.0664561192375023198e-15
1.0506249999999999201	8.1694623252903163955e-16	5.3574721307982004995e-16	1.2457389054937439032e-15
1.0768906249999996572	9.6072338745112527559e-16	6.1926459097898367108e-16	1.4904605246949909435e-15
1.1038128906249995431	1.1411156364941432689e-15	7.2695277808713625627e-16	1.7912372510327652543e-15
1.1314082128906244318	1.3656086489062472777e-15	8.6708894251732017845e-16	2.1507447396958296831e-15
1.1596934182128899593	1.641026362259448925e-15	1.0424573263267534748e-15	2.5832880192031784795e-15
1.1886857536682122749	1.9706404613943778411e-15	1.2543655306316950867e-15	3.0959267719425967895e-15
1.2184028975099172598	2.3514149398904311453e-15	1.5012154596219971766e-15	3.6831170263408745323e-15
1.2488629699476652135	2.7733681904067890141e-15	1.78046686123334625e-15	4.3199743207982001084e-15
1.280084544196356644	3.2253322969434249786e-15	2.0923133539375917745e-15	4.9718979263450407486e-15
1.3120866578012655435	3.7081234057251518789e-15	2.4377394587692363198e-15	5.6405450314320616291e-15
1.3448888242462970766	4.2465724780488750646e-15	2.8284985552751282314e-15	6.3756008563943056804e-15
1.378511044852454237	4.888801805256961729e-15	3.3003502284332662665e-15	7.2417717626379467377e-15
1.4129738209737656707	5.6963524145031153677e-15	3.9089739938574731909e-15	8.3010096463175874619e-15
1.448298166498109607	6.7365747502017390096e-15	4.7260535232199682097e-15	9.6023964058147637964e-15
1.4845056206605622418	8.0714506528096966532e-15	5.8179033455797136857e-15	1.1197902710130104752e-14
1.5216182611770761035	9.734832832461765828e-15	7.1783501124240586879e-15	1.3201776005875770945e-14
1.559658717706502884	1.1724274885254020122e-14	8.7402298773976429831e-15	1.5727117422903040793e-14
1.5986501856491652784	1.4050424618525077808e-14	1.0557622829712802613e-14	1.8698757773886663805e-14
1.6386164402903942161	1.6827630555463197785e-14	1.2849477797237896131e-14	2.2037405300005907131e-14
1.6795818512976541381	2.0286198019148450817e-14	1.5797667244730489505e-14	2.6050037875647336456e-14
1.7215713975800952529	2.4625637967614294811e-14	1.9358549782689455414e-14	3.1325799304154141191e-14
1.7646106825195975176	2.9819100377220149281e-14	2.3283252817567027653e-14	3.8189627294509837505e-14
1.8087259495825871447	3.5608201985777009353e-14	2.7383690414764043598e-14	4.6302891591860677354e-14
1.85394409832215179	4.1765186639861264965e-14	3.1719876257616115692e-14	5.4991728243064079941e-14
1.9002927007802052906	4.8316065297101454718e-14	3.6440985299966555244e-14	6.4060895899977596405e-14
1.9478000182997103895	5.5419746706037540927e-14	4.1590650540846632912e-14	7.3847085463232991711e-14
1.9964950187572030327	6.3082228474861206037e-14	4.7112945523623276509e-14	8.4464418539895015479e-14
2.0464073942261329364	7.1104927589987390005e-14	5.2756474266725210758e-14	9.583488657744204057e-14
2.0975675790817858157	7.932347640955033071e-14	5.8323403038185080835e-14	1.0788488980275885498e-13
2.150006768558830661	8.7797494687034233514e-14	6.4377220933191169078e-14	1.1973800610808224485e-13
2.2037569377728010167	9.6785610384071110816e-14	7.1787987379170391751e-14	1.3048776988189004634e-13
2.2588508612171209755	1.0665158271411193992e-13	8.0446455887573368813e-14	1.4139292986780413486e-13
2.3153221327475486113	1.1775982888759299505e-13	8.9346308150317194316e-14	1.5520929277015627177e-13
2.3732051860662370935	1.3037787790514820958e-13	9.8306373985376648031e-14	1.7291239985698478309e-13
2.4325353157178928321	1.4478905352696604646e-13	1.0832355312269947279e-13	1.9353011802971968537e-13
2.4933486986108399641	1.6175320486958098617e-13	1.2051249560370911137e-13	2.1710694110607532136e-13
2.5556824160761109077	1.8269536967408403003e-13	1.3601093939390201109e-13	2.4540377596896954025e-13
2.6195744764780131142	2.0864492496130943783e-13	1.5526038241372955596e-13	2.8038514420315432214e-13
2.6850638383899632089	2.3803626306178016415e-13	1.7542960889907599251e-13	3.2298574276030004264e-13
2.7521904343497123335	2.6552165028504667822e-13	1.9138440635513383537e-13	3.6837769655732162379e-13
2.8209951952084546534	2.8493057143653652372e-13	2.0151278843827288758e-13	4.0287979322969791985e-13
2.8915200750886658199	2.9496955841670252846e-13	2.0818441596293892603e-13	4.1793253347086994793e-13
2.9638080769658823321	3.0048161860406812731e-13	2.1362735314971036108e-13	4.2264813839473942452e-13
3.0379032788900293127	3.0725321443044907703e-13	2.1878574307518107971e-13	4.3149309662925983927e-13
3.1138508608622794682	3.1685198392655667527e-13	2.2459023256482957184e-13	4.4701489718265083577e-13
3.1916971323838363439	3.2632959343558978176e-13	2.3080359323787775121e-13	4.6139231221622427878e-13
3.2714895606934319972	3.3190355119536601265e-13	2.3543067658876967327e-13	4.6790829849464791093e-13
3.3532767997107675306	3.325609252432889718e-13	2.3734040646857410479e-13	4.6598373468833003284e-13
3.4371087197035361527	3.3012533461492732182e-13	2.3737091475767017993e-13	4.5912422196239678158e-13
3.5230364376961245121	3.267739343601255713e-13	2.3622902661243107102e-13	4.520240620234453144e-13
3.6111123486385272585	3.2328540057897028607e-13	2.3337596359319632674e-13	4.4783296710746686031e-13
3.7013901573544902845	3.1913691657694142892e-13	2.2873273413273971944e-13	4.4527239141526787634e-13
3.7939249112883519643	3.1368789509817449023e-13	2.2333443966089182185e-13	4.4059526009751464914e-13
3.8887730340705606302	3.0743101906010343427e-13	2.1821076832785730622e-13	4.331309229356112644e-13
3.9859923599223243684	3.0204417450244478315e-13	2.1409505212116527251e-13	4.2612233420150264332e-13
4.0856421689203816783	2.9892297880285563503e-13	2.1120362193124486808e-13	4.2307488119432461995e-13
4.1877832231433913535	2.9744621902412085748e-13	2.0869418083208909144e-13	4.2394211884101255657e-13
4.2924778037219750715	2.9488614524164213038e-13	2.0480896658155927519e-13	4.2458023253023150988e-13
4.3997897488150243817	2.8860305260357692414e-13	1.981991719334816089e-13	4.2024253259774892096e-13
4.5097844925353998136	2.7857703953562829458e-13	1.8983809034411529349e-13	4.0879660565359585627e-13
4.6225291048487839873	2.6731478606978622845e-13	1.8236092620972670147e-13	3.9184487782955895738e-13
4.7380923324700034982	2.5715766350976896975e-13	1.7698225410820519003e-13	3.7365364247972736084e-13
4.856544640781753408	2.4815339984110831965e-13	1.7224245792518963736e-13	3.5751992043359696949e-13
4.9779582568012967769	2.3840820891302928833e-13	1.6567419349553420949e-13	3.430737936783782861e-13
5.1024072132213289521	2.2621818693922537219e-13	1.5626754969941574647e-13	3.2748109380678188924e-13
5.2299673935518615764	2.1181891553122128107e-13	1.4529797941332576746e-13	3.0879474826824554291e-13
5.3607165783906571832	1.9705283911153390411e-13	1.3478926090504871268e-13	2.880780051852160787e-13
5.4947344928504229244	1.8362404471079561685e-13	1.2567028300673037391e-13	2.6830360359852524436e-13
5.6321028551716834087	1.718908833325344433e-13	1.1759297567652868507e-13	2.512605502399611841e-13
5.7729054265509747168	1.6108202219859391104e-13	1.0986409365445843173e-13	2.3617741713864599081e-13
5.9172280622147486184	1.5042798366168437211e-13	1.021950934797818476e-13	2.2142529056932454925e-13
6.0651587637701167566	1.4000318293254057652e-13	9.4865573781374892161e-14	2.0661753732090633422e-13
6.2167877328643692536	1.3052236531818552421e-13	8.8347676954883598497e-14	1.9283006000207200219e-13
6.3722074261859784627	1.225462166336158231e-13	8.2857066286988491428e-14	1.8124676487093284485e-13
6.5315126118406272582	1.1599495957898171294e-13	7.8275792218203049634e-14	1.7189006034231716721e-13
6.6948004271366423623	1.1028669485313205835e-13	7.4245175109325080681e-14	1.6382418175615821666e-13
6.8621704378150578663	1.0478339118338068656e-13	7.0258953323298878361e-14	1.5627273889729868335e-13
7.0337246987604338244	9.9165693505848467332e-14	6.5939992032137810753e-14	1.4913309003287513146e-13
7.2095678162294438707	9.3514609660747591336e-14	6.1272150611074545098e-14	1.4272360497856244383e-13
7.3898070116351792791	8.8138039674814347073e-14	5.6573701195379106858e-14	1.373131662517717313e-13
7.5745521869260574732	8.3309861452459483853e-14	5.2374559938440666167e-14	1.3251725691606131987e-13
7.7639159915992088656	7.9071103571730886536e-14	4.9065250435533453192e-14	1.2742703572391165507e-13
7.9580138913891884656	7.5230299636604832388e-14	4.6489308539474903365e-14	1.2173977547133615202e-13
8.1569642386739165119	7.1556710967987764675e-14	4.4087619348827474245e-14	1.1614060727668476685e-13
8.3608883446407649132	6.7999723687791459067e-14	4.158115686399577096e-14	1.1120331348019267006e-13
8.5699105532567827481	6.4751794071831371194e-14	3.9284617209252631069e-14	1.0672866718256670739e-13
8.7841583170882007181	6.2113038793185739297e-14	3.7702233691120100262e-14	1.023289394397994837e-13
9.0037622750154060469	6.0317274581290384371e-14	3.7146483761280794758e-14	9.7941265081649176586e-14
9.2288563318907907984	5.948044969951977348e-14	3.7615148333073947355e-14	9.4055827325989958765e-14
9.4595777401880596358	5.9628535513948823933e-14	3.8762312125854203597e-14	9.1727300373465594648e-14
9.6960671836927598832	6.0646435560315282704e-14	4.0019632282997708735e-14	9.1904646203709963615e-14
9.9384688632850775036	6.2149429721756408944e-14	4.084941011866247338e-14	9.4555872496550265359e-14
10.186930584867203819	6.3541545464709457881e-14	4.1047669263072303213e-14	9.8361930714444200494e-14
10.441603849488883426	6.4425123152684038253e-14	4.0955983312245630177e-14	1.0134286025059243585e-13
10.70264394572610378	6.5026288559454677086e-14	4.1280917137269535461e-14	1.0243033578340573165e-13
10.970210044369256508	6.610365163149625232e-14	4.2664599383074007946e-14	1.0241963647153736185e-13
11.244465295478486055	6.8348357827622203784e-14	4.5336173189692074714e-14	1.0304129548355499441e-13
11.52557692786544763	7.1827282841601979462e-14	4.8905589638294699302e-14	1.0549220648528277496e-13
11.813716351062081955	7.5840172546625932106e-14	5.2388839540630970795e-14	1.0978925706955485649e-13
12.109059259838634404	7.9211125593763717079e-14	5.463189911948799327e-14	1.1484869680455312108e-13
12.411785741334599109	8.0845723771347282011e-14	5.4988673489619899963e-14	1.1886140612842352334e-13
12.722080384867961556	8.0186148032879365518e-14	5.3657776580760122517e-14	1.1983012987266340518e-13
13.040132394489660328	7.7277977115516503944e-14	5.1240822851467981531e-14	1.1654546931022218369e-13
13.366135704351901126	7.25198937196608435e-14	4.8069986551987205102e-14	1.0940579272730194693e-13
13.700289096960696966	6.6342230753759346922e-14	4.4059980470181118541e-14	9.9893180487534605516e-14
14.042796324384713813	5.9015306489177175415e-14	3.8991392691425572459e-14	8.9322441687942233131e-14
14.393866232494330504	5.0721263469042138579e-14	3.2841765743649778149e-14	7.833459954550191451e-14
14.753712888306687034	4.1816015349856532899e-14	2.6047494244348737719e-14	6.7130416589642162596e-14
15.122555710514353322	3.2950488292907898894e-14	1.9425794398421059061e-14	5.5891391439276725924e-14
15.50061960327720989	2.4891800753319619154e-14	1.3739923249890190199e-14	4.5094993143277932188e-14
15.888135093359139205	1.8222812003006183662e-14	9.3839354265465531542e-15	3.53871656402812576e-14
16.285338470693115909	1.3170987338263902879e-14	6.3549680685184493591e-15	2.7297526217964257603e-14
16.692471932460442474	9.6384126889178696722e-15	4.3965380530942215083e-15	2.1130034140501069423e-14
17.109783730771951582	7.3388298353511600586e-15	3.1895866949151927492e-15	1.6885706050285728113e-14
17.537528324041250727	5.9370208428734536838e-15	2.4726075088612021862e-15	1.4255483881850673558e-14
17.97596653214228013	5.1335501304396755117e-15	2.0615998422556758163e-15	1.2782954481070878639e-14
18.42536569544583358	4.6888070349128508886e-15	1.8279864362235088673e-15	1.2026846028500910368e-14
18.885999837831977999	4.4176671786283960768e-15	1.6808448347037472624e-15	1.1610698916518535261e-14
19.358149833777776649	4.188334558958392723e-15	1.55902172269026154e-15	1.1252021779077146182e-14
19.84210357962221849	3.9298278951691568099e-15	1.4273023353280629081e-15	1.0820095296838404941e-14
20.338156169112771465	3.6285820585784268066e-15	1.2764496660364142585e-15	1.0315023072332912916e-14
20.846610073340588798	3.3054247039819997704e-15	1.1195122501498888094e-15	9.7594577211921146137e-15
21.367775325174104495	2.9898461186420782744e-15	9.7730779656967099334e-16	9.1467394863065935688e-15
21.901969708303454354	2.7094673291920718478e-15	8.6609398544554618446e-16	8.4762315999488981704e-15
22.449518951011040002	2.4876176929889383579e-15	7.940356371298103332e-16	7.7934056068820286148e-15
23.010756924786313959	2.3302692309501013513e-15	7.5788258782451068187e-16	7.1649022895484975424e-15
23.586025847905968789	2.2075199799274350804e-15	7.3753908598228300908e-16	6.6073033340173168494e-15
24.175676494103615966	2.0550389263404905861e-15	6.9741332671648808343e-16	6.0554979765843816277e-15
24.780068406456202013	1.8182568221496742349e-15	6.0952862870125107492e-16	5.4239583107657995358e-15
25.399570116617606885	1.5104196567329235483e-15	4.8449357010851458002e-16	4.7087674227219005216e-15
26.034559369533045725	1.2042933286520888361e-15	3.6187465156077313603e-16	4.0078032964747773971e-15
26.685423353771369648	9.6314179019898166393e-16	2.7025472500415497051e-16	3.432473226928548521e-15
27.352558937615651047	8.0403943836502478301e-16	2.1346528738806559865e-16	3.0284990424278594402e-15
28.036372911056037793	7.1312421527162607911e-16	1.831613961171840227e-16	2.7764919747685915175e-15
28.737282233832438294	6.6885044562036833186e-16	1.7015687491731079489e-16	2.6291086905772344502e-15
29.455714289678244455	6.5262271942023313233e-16	1.6774964092302354438e-16	2.5390004506710306821e-15
30.192107146920200478	6.5078919627353647072e-16	1.7144762135378267836e-16	2.4702971942224103786e-15
30.94690982559320247	6.5391073402217986529e-16	1.781224333597281547e-16	2.4005917727716283781e-15
31.72058257123302738	6.5567711438058519801e-16	1.8546581526491632768e-16	2.3180146578946157577e-15
32.513597135513848002	6.5151519847150800164e-16	1.915289452990204337e-16	2.2162292659037548052e-15
33.326437063901693136	6.3674324412313453761e-16	1.9397123990210216246e-16	2.0902168751464465473e-15
34.159597990499236175	6.0654106155845940241e-16	1.8988353276789656784e-16	1.9374616323689021969e-15
35.013587940261714948	5.5889616294172480432e-16	1.7724955845376271416e-16	1.7622888523723259153e-15
35.888927638768251427	4.9783492823572101199e-16	1.5709873743867023999e-16	1.5776041221732895921e-15
36.786150829737451318	4.327446247053473002e-16	1.3360439955277349125e-16	1.4016597570007520468e-15
37.705804600480888666	3.7360516174154712272e-16	1.1170098379071256017e-16	1.2495934426276118881e-15
38.648449715492908751	3.2650991579118436684e-16	9.4651626270491091244e-17	1.1263274526874451521e-15
39.614660958380227385	2.9259526824836081176e-16	8.3268420575440993033e-17	1.0281447685652443464e-15
40.605027482339728806	2.6964104307314525282e-16	7.6572365437722533118e-17	9.4951085413061844963e-16
41.620153169398214743	2.5433987398193233434e-16	7.287616132841066759e-17	8.8765338785656366869e-16
42.660656998633172066	2.4421368228737640321e-16	7.0747739472593178584e-17	8.4299969244195516867e-16
43.72717342359899817	2.3870316901696303863e-16	6.9681959469719746687e-17	8.1770379783164822911e-16
44.820352759188963887	2.3868136813204809291e-16	7.001056329605079303e-17	8.1371714226158499324e-16
45.940861578168686208	2.4435724118812544292e-16	7.1964839622013038509e-17	8.2971714568800506025e-16
47.089383117622901409	2.5295904577977884512e-16	7.4648817872599706772e-17	8.5719078567356029336e-16
48.26661769556346826	2.5837913683163156057e-16	7.591443482151102518e-17	8.7940822462583908154e-16
49.473283137952549282	2.5459141577120856769e-16	7.3778764978555310115e-17	8.7852905918428111313e-16
50.710115216401362659	2.4067829173608066767e-16	6.8334746606251570666e-17	8.4768061622838618567e-16
51.977868096811391752	2.2147980475864318643e-16	6.1755331735518909034e-17	7.9431690410163289741e-16
53.277314799231668019	2.0304212384900628777e-16	5.6390695316498157385e-17	7.3107990291181493253e-16
54.609247669212457765	1.8862959163946067331e-16	5.3433822568703192469e-17	6.658913985859953284e-16
55.97447886094276015	1.7835797060845033787e-16	5.299782711658447511e-17	6.0024282900477855521e-16
57.373840832466328266	1.7081682388354450037e-16	5.4614100663735316433e-17	5.3426472224300121201e-16
58.808186853277980788	1.6467796388976087682e-16	5.7531363771978314177e-17	4.7137474262492809502e-16
60.278391524609922669	1.5947502628519496831e-16	6.0962330408144277447e-17	4.1718031181540915108e-16
61.785351312725168782	1.5550223432575097438e-16	6.4414522550179560181e-17	3.7539585675673629294e-16
63.329985095543293028	1.5323089146123231263e-16	6.7753325080998213185e-17	3.465469195782535554e-16
64.913234722931861143	1.5273529117587641335e-16	7.0794540371769088065e-17	3.2951791265364782813e-16
66.536065591005154829	1.534541704825098515e-16	7.2967095704788508693e-17	3.2272330714308303113e-16
68.199467230780285831	1.5434462730336391044e-16	7.3649128645091047524e-17	3.234561550919603125e-16
69.904453911549779832	1.5424018448170818817e-16	7.2796128637740238225e-17	3.2680356708718889493e-16
71.65206525933851367	1.5221072407312832794e-16	7.0951024708436121491e-17	3.2653657389829500587e-16
73.443366890821977222	1.4780797449345584615e-16	6.860374140655504248e-17	3.1845489583998997217e-16
75.2794510630925231	1.4112287687857964196e-16	6.5711108418341634756e-17	3.0307914229198698659e-16
77.161437339669831204	1.3265014343307483025e-16	6.196808101868655642e-17	2.839536139179332019e-16
79.090473273161563839	1.2308877400979402686e-16	5.7478643858502181428e-17	2.6359087950181427069e-16
81.067735104990603645	1.1320447939687920762e-16	5.2868342569797155022e-17	2.4239939314533384166e-16
83.094428482615356302	1.037433305461771563e-16	4.8790522292455045271e-17	2.2058953516219506378e-16
85.171789194680727064	9.5317184275216715734e-17	4.5563408349322894274e-17	1.9940048269656358556e-16
87.301083924547739912	8.827574996522962709e-17	4.3148970357150466783e-17	1.8059777481184740235e-16
89.483611022661420975	8.2670808346592480522e-17	4.1321806686053613948e-17	1.6539602453988784099e-16
91.720701298227950815	7.8350095740727153182e-17	3.9865000683256282382e-17	1.5398814492330975534e-16
94.013718830683643546	7.5063098294573961963e-17	3.8638133255421899997e-17	1.4582662905408907686e-16
96.364061801450731082	7.2490489032662661303e-17	3.7510557212792738524e-17	1.4009045427889417692e-16
98.773163346486981595	7.0229806627749872592e-17	3.6317928965460033059e-17	1.3580691078673307241e-16
101.24249243014915578	6.7846511139219259821e-17	3.4928369669730383293e-17	1.3178826029642553948e-16
103.77355474090286691	6.5029187956227244205e-17	3.3328874598420233283e-17	1.2688083042704275256e-16
106.36789360942543681	6.1739235229652122335e-17	3.1632821053395376057e-17	1.2049931178468754161e-16
109.02709094966105852	5.8207658750852601561e-17	3.0020198610615932616e-17	1.1286172957088881393e-16
111.7527682234025832	5.4762518373306115035e-17	2.8648122691758699995e-17	1.0468167324099748631e-16
114.54658742898763535	5.1634511683933027653e-17	2.757564566508985354e-17	9.668396632371396196e-17
117.41025211471232126	4.8878789346751317239e-17	2.6748790710642483011e-17	8.9317534906485682029e-17
120.3455084175801062	4.6424037761381127484e-17	2.604112451313090141e-17	8.2761068208994327526e-17
123.35414612801960743	4.4168245200134566374e-17	2.5315902674812546284e-17	7.7059621737294241825e-17
126.43799978122008554	4.2039828848454131671e-17	2.4483300381635282556e-17	7.2185823890515536274e-17
129.59894977575058306	4.0002334441815836242e-17	2.3528966096726204336e-17	6.8009225488982863393e-17
