# GEOPSY output version 1.1
# Number of windows = 74
# f0 from average	7.03372
# Number of windows for f0 = 74
# f0 from windows	7.50411	6.50858	8.65192
# f0 amplitude	7.52881e-13
# Position	0 0 0
# Category	Default
# Frequency	Average	Min	Max
1	7.2893498364887205903e-16	5.0211030962260719914e-16	1.0582260515354650577e-15
1.0249999999999999112	8.0219568449283904338e-16	5.5768324396861912265e-16	1.1539129482167932461e-15
1.0506249999999999201	8.7690832762415801895e-16	6.1831106933337199518e-16	1.2436591437472657434e-15
1.0768906249999996572	9.4995863843575371518e-16	6.8176702675392501256e-16	1.3236507183918537874e-15
1.1038128906249995431	1.0282912418929285051e-15	7.5087787692671000318e-16	1.4081955410399017872e-15
1.1314082128906244318	1.12630804723666552e-15	8.3528499109825631874e-16	1.5187269384573993495e-15
1.1596934182128899593	1.2565734272166255818e-15	9.4251676288429730819e-16	1.6752771305148346896e-15
1.1886857536682122749	1.4218116000600449678e-15	1.0646528242623019885e-15	1.8987863273326085539e-15
1.2184028975099172598	1.6170002220149600033e-15	1.1868739076059524828e-15	2.2030054761845171522e-15
1.2488629699476652135	1.8415183384405761113e-15	1.3221024155301696358e-15	2.5649978027254841252e-15
1.280084544196356644	2.1067941281521529963e-15	1.5118693529709258706e-15	2.9358234490925269718e-15
1.3120866578012655435	2.4268609923999735954e-15	1.782640442122889808e-15	3.3038935599479520226e-15
1.3448888242462970766	2.8032412047567992612e-15	2.1062083180879114767e-15	3.7309515799369078151e-15
1.378511044852454237	3.2268625988761777735e-15	2.4255597854515526138e-15	4.2928821192042721261e-15
1.4129738209737656707	3.7005968197451040552e-15	2.7439315078083587498e-15	4.9908012584634893998e-15
1.448298166498109607	4.2545002068894157145e-15	3.123595227036857578e-15	5.7948519877823774146e-15
1.4845056206605622418	4.9306300844419126586e-15	3.6288311506756743841e-15	6.6994335145841727197e-15
1.5216182611770761035	5.7578187716380755611e-15	4.2950928391319544455e-15	7.7186869408224401102e-15
1.559658717706502884	6.754620850523773606e-15	5.115580593341281977e-15	8.9188122446391243923e-15
1.5986501856491652784	7.9590269614918212006e-15	6.0668808294738884826e-15	1.0441297918035257369e-14
1.6386164402903942161	9.4370156635631660358e-15	7.1490126830645756126e-15	1.2457281667062348301e-14
1.6795818512976541381	1.124148496275415372e-14	8.4011284216567636922e-15	1.5042144081747828983e-14
1.7215713975800952529	1.3361765931666552407e-14	9.8944373403777685173e-15	1.8044157810173005608e-14
1.7646106825195975176	1.5738531626707223857e-14	1.1672743736148903084e-14	2.1220493087479167811e-14
1.8087259495825871447	1.8348879148237631327e-14	1.3697173994232800566e-14	2.4580352570419966546e-14
1.85394409832215179	2.1249602823232212303e-14	1.5939458044263211827e-14	2.8328793795321960442e-14
1.9002927007802052906	2.4494980015200492448e-14	1.8487933647708280159e-14	3.2453818656983692819e-14
1.9478000182997103895	2.8025870668314221845e-14	2.1343407962682927594e-14	3.6800562875917693377e-14
1.9964950187572030327	3.1720612449375731456e-14	2.4286926602541521518e-14	4.1429583521621726798e-14
2.0464073942261329364	3.5620349523695526943e-14	2.7281154659623137795e-14	4.6508636310328497277e-14
2.0975675790817858157	4.0037157435884581698e-14	3.0726024902805951203e-14	5.216991070652363396e-14
2.150006768558830661	4.5327984192235303085e-14	3.4927379409427481911e-14	5.8825660146061672508e-14
2.2037569377728010167	5.1540707540645063526e-14	3.9578180046088333533e-14	6.7118915793927558603e-14
2.2588508612171209755	5.8349008234951947147e-14	4.4080788917967360981e-14	7.7235613190551821004e-14
2.3153221327475486113	6.5450523584825012645e-14	4.8208305942753802339e-14	8.8859605284919369319e-14
2.3732051860662370935	7.3072310969326000557e-14	5.243949545828198191e-14	1.018233029081248102e-13
2.4325353157178928321	8.2037787457328980768e-14	5.7812738831601888736e-14	1.1641376462889506949e-13
2.4933486986108399641	9.3353734218534650725e-14	6.5237298856946128789e-14	1.3358799099967469014e-13
2.5556824160761109077	1.0766521360501451799e-13	7.5053051692067463173e-14	1.5444805986268201958e-13
2.6195744764780131142	1.2482920509541349109e-13	8.7095918713269065308e-14	1.7890999572611245934e-13
2.6850638383899632089	1.4373311311397484892e-13	1.0073822813454720606e-13	2.0507813357449566333e-13
2.7521904343497123335	1.6261290016200876418e-13	1.1509651756462960273e-13	2.2974591984723642478e-13
2.8209951952084546534	1.7989011240566661769e-13	1.2917375996711156692e-13	2.5051877834602431392e-13
2.8915200750886658199	1.9493941759998175317e-13	1.4174516441622087503e-13	2.6809645811008222757e-13
2.9638080769658823321	2.083501360161475829e-13	1.5240814135400664908e-13	2.8482585505138438429e-13
3.0379032788900293127	2.2160771535581791052e-13	1.6252758544914053324e-13	3.0216396416344416932e-13
3.1138508608622794682	2.3621268164707006256e-13	1.7375755215832861978e-13	3.211165804180880844e-13
3.1916971323838363439	2.5235297793532919472e-13	1.8620842533962738513e-13	3.4199325490604663155e-13
3.2714895606934319972	2.6793442136301440742e-13	1.9811734439938176424e-13	3.6235522118858650541e-13
3.3532767997107675306	2.7940371466270993082e-13	2.0646313333978119416e-13	3.7811319873192699231e-13
3.4371087197035361527	2.8451130293343050491e-13	2.0893011984921417605e-13	3.8743423664954510655e-13
3.5230364376961245121	2.8439475490896996641e-13	2.0658619987234479536e-13	3.9150909726647407815e-13
3.6111123486385272585	2.8256912106651064467e-13	2.0303236162460077061e-13	3.9326394837455186818e-13
3.7013901573544902845	2.8217703663405228524e-13	2.0089420267205128318e-13	3.9634732582879397134e-13
3.7939249112883519643	2.8448011597527042972e-13	2.0106453898928363431e-13	4.0250228504796995038e-13
3.8887730340705606302	2.8923078655008178964e-13	2.0411886013095418778e-13	4.0983203528919254554e-13
3.9859923599223243684	2.9547213928666571884e-13	2.1009311346325025402e-13	4.1554805702810469987e-13
4.0856421689203816783	3.0171151642699386186e-13	2.1734516148026307239e-13	4.1882615892943414251e-13
4.1877832231433913535	3.0599973933760314603e-13	2.229979460909258878e-13	4.1989552870815092328e-13
4.2924778037219750715	3.0691577894597534956e-13	2.2479603147018715116e-13	4.1903451208615939132e-13
4.3997897488150243817	3.0479453916826416108e-13	2.2281339933263753847e-13	4.1693951703552975841e-13
4.5097844925353998136	3.0169819010188261232e-13	2.1940296152464058582e-13	4.1486130031352962853e-13
4.6225291048487839873	3.0005416106147712501e-13	2.1718375409289770682e-13	4.1454527732215435662e-13
4.7380923324700034982	3.0137439623181166003e-13	2.1743643111811221599e-13	4.1771531218129553073e-13
4.856544640781753408	3.0613276622192769994e-13	2.2026074666868925997e-13	4.2548330545549555678e-13
4.9779582568012967769	3.1446883621162722735e-13	2.2536717644755974888e-13	4.3879792304761779992e-13
5.1024072132213289521	3.268290158922868946e-13	2.3273057152419715097e-13	4.5897367470699844336e-13
5.2299673935518615764	3.4401747385816535395e-13	2.4262152950197047162e-13	4.8778862520027231953e-13
5.3607165783906571832	3.6685617956292604421e-13	2.5443808078360496268e-13	5.2894384389719812627e-13
5.4947344928504229244	3.9591874339677916151e-13	2.6644225946213029567e-13	5.8831377458410990799e-13
5.6321028551716834087	4.3124603928170244905e-13	2.7804776818487674465e-13	6.6885322479013842838e-13
5.7729054265509747168	4.7179888715182020531e-13	2.9028807141413227841e-13	7.6680446713960039415e-13
5.9172280622147486184	5.1528965063787663212e-13	3.0365453309417212886e-13	8.7442601745108275213e-13
6.0651587637701167566	5.5931174640553265929e-13	3.1832146304588097935e-13	9.8274752407165658483e-13
6.2167877328643692536	6.0328433091600493245e-13	3.3588546653771272699e-13	1.0835597850671153635e-12
6.3722074261859784627	6.4880060141386812032e-13	3.5844809889698440637e-13	1.1743463605758246767e-12
6.5315126118406272582	6.9686307826280592832e-13	3.855501772413869388e-13	1.2595459125982340419e-12
6.6948004271366423623	7.4398926106616664263e-13	4.1243263507896543301e-13	1.3420858911317779176e-12
6.8621704378150578663	7.8135715284772110915e-13	4.3208659950836803611e-13	1.4129551830604119118e-12
7.0337246987604338244	7.9935811911095868128e-13	4.4009322425607845792e-13	1.4519046587656803702e-12
7.2095678162294438707	7.944702322577559766e-13	4.3688037257461356469e-13	1.4447500724832740281e-12
7.3898070116351792791	7.718747582527596026e-13	4.2565682701599557254e-13	1.3996971377258497381e-12
7.5745521869260574732	7.4154917684062038166e-13	4.1104613329049910994e-13	1.3377943182946172482e-12
7.7639159915992088656	7.1226494883469837274e-13	3.9866253903598346052e-13	1.2725583862613798922e-12
7.9580138913891884656	6.8818612090575838919e-13	3.9227450042272440809e-13	1.2073181827953441411e-12
8.1569642386739165119	6.6880576007494699696e-13	3.9096732094862366833e-13	1.1440883182362104383e-12
8.3608883446407649132	6.5119588172961686576e-13	3.9070527302745379316e-13	1.0853605150904013355e-12
8.5699105532567827481	6.3347524586415391416e-13	3.8912419949041268063e-13	1.031266849114423492e-12
8.7841583170882007181	6.172082267482257649e-13	3.8722488072883474455e-13	9.837849118803333587e-13
9.0037622750154060469	6.0675105390361658497e-13	3.8684473698011416175e-13	9.5166563279901648783e-13
9.2288563318907907984	6.0601757868475216335e-13	3.88298629285698318e-13	9.458114914042434543e-13
9.4595777401880596358	6.1530838354726363233e-13	3.895354834168485778e-13	9.7193817503499538755e-13
9.6960671836927598832	6.3059740692887292069e-13	3.8772557779392043157e-13	1.0256044800757888012e-12
9.9384688632850775036	6.4574550964436531077e-13	3.8260030991925150373e-13	1.0898769614532383366e-12
10.186930584867203819	6.5617408388083436048e-13	3.7680110939866027778e-13	1.1426835474130988222e-12
10.441603849488883426	6.6119142267883007299e-13	3.7298390467121687527e-13	1.1720990958294077665e-12
10.70264394572610378	6.6326426363966856646e-13	3.7175827805680630822e-13	1.1833481845271784765e-12
10.970210044369256508	6.6544151725250209544e-13	3.7205184406847641953e-13	1.1901900768480322e-12
11.244465295478486055	6.6925605612869077557e-13	3.7289332608355948821e-13	1.2011576430428287905e-12
11.52557692786544763	6.7403639855448427522e-13	3.738959650824695288e-13	1.2151109105338700208e-12
11.813716351062081955	6.7740256245874465614e-13	3.7354868232130628408e-13	1.2284188202033992047e-12
12.109059259838634404	6.7671436576544889366e-13	3.6917841517840702735e-13	1.2404363689898585856e-12
12.411785741334599109	6.7078113207073850136e-13	3.5962745795459724983e-13	1.251148423708256171e-12
12.722080384867961556	6.6037400318852259486e-13	3.4646333076152594207e-13	1.2587012401246077186e-12
13.040132394489660328	6.4706836767063911595e-13	3.3266704825750077086e-13	1.258608192885556873e-12
13.366135704351901126	6.3143771705820923506e-13	3.2086187296853269723e-13	1.2426331207098121159e-12
13.700289096960696966	6.1232782586135142506e-13	3.1196346082175377825e-13	1.2018887254822500455e-12
14.042796324384713813	5.8780381909233600976e-13	3.0472398757247868987e-13	1.1338566828689690423e-12
14.393866232494330504	5.5664218239357556717e-13	2.9626777224514286165e-13	1.0458461845910831133e-12
14.753712888306687034	5.1907537256970186137e-13	2.8330902910458225464e-13	9.5104361219956927373e-13
15.122555710514353322	4.7681439338172416309e-13	2.6409741832946325453e-13	8.6086402197373451604e-13
15.50061960327720989	4.3286101361693032286e-13	2.400392498959120389e-13	7.8057508174485956956e-13
15.888135093359139205	3.90828980045132859e-13	2.1475016453446925713e-13	7.1127904360046067708e-13
16.285338470693115909	3.5351286519464708205e-13	1.9137572400139117281e-13	6.5301566596409194883e-13
16.692471932460442474	3.2156125652477604387e-13	1.7116311513585944319e-13	6.0411170721985605389e-13
17.109783730771951582	2.9344855766708766857e-13	1.5381417798514131435e-13	5.5984472384081942907e-13
17.537528324041250727	2.6697727073456893665e-13	1.3848936015765516477e-13	5.1467392879668379699e-13
17.97596653214228013	2.411425876279246628e-13	1.2457706795502711105e-13	4.6677730117138126225e-13
18.42536569544583358	2.1674695555631158622e-13	1.1195560164759992386e-13	4.1962386920848494331e-13
18.885999837831977999	1.9541733759747068632e-13	1.0097649599936208507e-13	3.7818638343248788275e-13
19.358149833777776649	1.7818177324138987867e-13	9.2108134373688907353e-14	3.4468990748025886369e-13
19.84210357962221849	1.6481231703089682877e-13	8.5201158017395656736e-14	3.188113926755187168e-13
20.338156169112771465	1.5412159018215230736e-13	7.9396413693767878958e-14	2.991755352060669483e-13
20.846610073340588798	1.4466812516591613523e-13	7.4052250872385834948e-14	2.8262296138827526976e-13
21.367775325174104495	1.3532049684419159348e-13	6.9153418761082655287e-14	2.6479727530787056018e-13
21.901969708303454354	1.2553573106351441575e-13	6.4744847455577839994e-14	2.43405002760468222e-13
22.449518951011040002	1.1542247290576035864e-13	6.0646281298745972681e-14	2.1967294558514766695e-13
23.010756924786313959	1.0557395211308801344e-13	5.6675045267516667715e-14	1.9666255778299052289e-13
23.586025847905968789	9.6672885056307829068e-14	5.2801791594501417588e-14	1.7699487882686401185e-13
24.175676494103615966	8.9061582557239725455e-14	4.9118085778307606749e-14	1.6148767530152979734e-13
24.780068406456202013	8.2573570806638620575e-14	4.5746673781720369968e-14	1.4904678377914071097e-13
25.399570116617606885	7.6736098414327940353e-14	4.2727164462870665487e-14	1.3781464026170958396e-13
26.034559369533045725	7.1155871884941464112e-14	3.9978731824764014598e-14	1.2664629098039403035e-13
26.685423353771369648	6.5740190757665529925e-14	3.7408288247030499384e-14	1.1552981660948675534e-13
27.352558937615651047	6.0621354566648993445e-14	3.4996763886197699527e-14	1.0500824137470408953e-13
28.036372911056037793	5.5982328408799840187e-14	3.2720148339179225039e-14	9.5782606532930339825e-14
28.737282233832438294	5.1989255129145841463e-14	3.0527152100974503816e-14	8.8540281777451957567e-14
29.455714289678244455	4.8796006890212925038e-14	2.8516711438470764748e-14	8.3496664528348343169e-14
30.192107146920200478	4.6502377369257249785e-14	2.6940834241380529876e-14	8.0267414201721370303e-14
30.94690982559320247	4.5074641637834622187e-14	2.5925627882867769293e-14	7.8367371774313803538e-14
31.72058257123302738	4.4319478788443894462e-14	2.5362726964096235985e-14	7.7444992522290485807e-14
32.513597135513848002	4.3915213311944172274e-14	2.5042119548288378551e-14	7.7012089831883827318e-14
33.326437063901693136	4.3448646511915303326e-14	2.4720045256468038485e-14	7.636656260665331687e-14
34.159597990499236175	4.248387453774850163e-14	2.4126600867793248647e-14	7.4808697902757639724e-14
35.013587940261714948	4.0713560522333753835e-14	2.3105877955854579569e-14	7.1739061963916048179e-14
35.888927638768251427	3.8107882367753073927e-14	2.1710268034020691916e-14	6.6890500673637222327e-14
36.786150829737451318	3.4892052211532180718e-14	2.0077720938966615696e-14	6.0637126655618771351e-14
37.705804600480888666	3.1365506738554378604e-14	1.8292726784726764547e-14	5.3780665099514019867e-14
38.648449715492908751	2.7765178645801701112e-14	1.6368350871183063438e-14	4.7097300839908235927e-14
39.614660958380227385	2.4270711960763934427e-14	1.4327441160765940298e-14	4.1114631180301991994e-14
40.605027482339728806	2.1045523677782645097e-14	1.2299497397137868329e-14	3.6010745201277690537e-14
41.620153169398214743	1.8209249741183040366e-14	1.0489625086100150266e-14	3.1609973990028352099e-14
42.660656998633172066	1.5790344828922748153e-14	9.0347651228142778171e-15	2.7597285200771323041e-14
43.72717342359899817	1.3746341602046111668e-14	7.9341728005618097687e-15	2.3816207711881880676e-14
44.820352759188963887	1.2021148149620705069e-14	7.0998732472346671694e-15	2.0353603198678763157e-14
45.940861578168686208	1.0561783851783505954e-14	6.4264090562145077731e-15	1.7358259823800320648e-14
47.089383117622901409	9.2963040599756526666e-15	5.8151463217007412258e-15	1.4861409222501624239e-14
48.26661769556346826	8.1282558502681646126e-15	5.1814758768836624711e-15	1.2750912044611271415e-14
49.473283137952549282	6.9717238321788075061e-15	4.4801584749636864548e-15	1.0848931675918879237e-14
50.710115216401362659	5.793101334711990788e-15	3.7122198357348004952e-15	9.0404190913437508423e-15
51.977868096811391752	4.6198307140340735855e-15	2.9208335408759822376e-15	7.3071044712570939657e-15
53.277314799231668019	3.5210632628460999734e-15	2.1863122699205591503e-15	5.6706842254582904257e-15
54.609247669212457765	2.5806197909713971576e-15	1.5803691976087060456e-15	4.2139510917006314393e-15
55.97447886094276015	1.8618861156140164697e-15	1.1302368797962371993e-15	3.0671622643752556044e-15
57.373840832466328266	1.377908131396623093e-15	8.2849391964435218078e-16	2.2916653623528814532e-15
58.808186853277980788	1.0956406696636633042e-15	6.5234277989165208282e-16	1.840180521688950568e-15
60.278391524609922669	9.6648837226020575957e-16	5.7514352779681894355e-16	1.6241159442277020104e-15
61.785351312725168782	9.4999799622239462191e-16	5.7438438935743884757e-16	1.5712408093753788705e-15
63.329985095543293028	1.0184402356624390385e-15	6.3240927809468475301e-16	1.6401095770465134658e-15
64.913234722931861143	1.1497499651732971637e-15	7.2736422325419695589e-16	1.8174182069359437296e-15
66.536065591005154829	1.3170032076781038057e-15	8.2696411874526533504e-16	2.0974276993615270103e-15
68.199467230780285831	1.4790551105059530105e-15	9.0092121522377955744e-16	2.4281857091914508058e-15
69.904453911549779832	1.5796874200818533006e-15	9.3403617600653147845e-16	2.6716442138611686375e-15
71.65206525933851367	1.5665156372941878256e-15	9.2071686207920904358e-16	2.6652832623761602734e-15
73.443366890821977222	1.4256593932772314074e-15	8.5691359682496649523e-16	2.3718899001841418193e-15
75.2794510630925231	1.1983296115326220016e-15	7.4603038416851846394e-16	1.9248463445311262984e-15
77.161437339669831204	9.5412863031365073606e-16	6.1260215674501982361e-16	1.4860565428324440935e-15
79.090473273161563839	7.4798191248562648949e-16	4.9187239924519314053e-16	1.1374432520796152405e-15
81.067735104990603645	6.0159785010410720251e-16	4.0284344050851322531e-16	8.9841346998980230156e-16
83.094428482615356302	5.1237318857976075886e-16	3.4593290733286640822e-16	7.5889364327742570232e-16
85.171789194680727064	4.6826785573745360713e-16	3.1567107117798268336e-16	6.9463059728181566713e-16
87.301083924547739912	4.5551496461551262016e-16	3.0539497076467163042e-16	6.794279632998946536e-16
89.483611022661420975	4.5922780977945112543e-16	3.0560402670121033421e-16	6.9007657900077177054e-16
91.720701298227950815	4.6268469020724362066e-16	3.0533695087837517526e-16	7.0111764048317333304e-16
94.013718830683643546	4.5129360282805670674e-16	2.9817746507806893761e-16	6.8303590916974194092e-16
96.364061801450731082	4.2066081039940483009e-16	2.8471283612058271208e-16	6.2152279404409827101e-16
98.773163346486981595	3.7874758347196255475e-16	2.6845810345505217898e-16	5.3434681292780920602e-16
101.24249243014915578	3.3730727224390414688e-16	2.5156086356282749732e-16	4.5228098797731936608e-16
103.77355474090286691	3.02719067989804216e-16	2.3415610432283371692e-16	3.9135786952738243895e-16
106.36789360942543681	2.7479041226439239146e-16	2.1638892571539384354e-16	3.4895395142239939658e-16
109.02709094966105852	2.5087285911604639915e-16	1.9924046416046612084e-16	3.1588558933676612744e-16
111.7527682234025832	2.2946490434111077194e-16	1.8353654389813659177e-16	2.8688642166814663574e-16
114.54658742898763535	2.105228623079994593e-16	1.6938299356135989543e-16	2.6165481328736694367e-16
117.41025211471232126	1.9392434478346013216e-16	1.5637191352476743238e-16	2.4049492426104947599e-16
120.3455084175801062	1.7891554301270872684e-16	1.4418940817662580893e-16	2.2200501365759548893e-16
123.35414612801960743	1.6499390505374739285e-16	1.3288796025302609833e-16	2.0485669772529366312e-16
126.43799978122008554	1.5252266384483340675e-16	1.2273973118945263061e-16	1.8953245832367540431e-16
129.59894977575058306	1.4208295699556288757e-16	1.1384509969598519579e-16	1.7732486266437780862e-16
