# GEOPSY output version 1.1
# Number of windows = 76
# f0 from average	3.35328
# Number of windows for f0 = 76
# f0 from windows	3.57028	3.11446	4.09282
# f0 amplitude	3.62434e-13
# Position	0 0 0
# Category	Default
# Frequency	Average	Min	Max
1	6.9293103595240972898e-16	3.8247554625015478239e-16	1.2553833187338978631e-15
1.0249999999999999112	7.7986883501779049175e-16	4.4292845766243214274e-16	1.3731233324717375858e-15
1.0506249999999999201	8.7766085672210740716e-16	5.0924009385508421103e-16	1.5126235909488040894e-15
1.0768906249999996572	9.9165999873000417623e-16	5.824386100778522959e-16	1.6884003499523255057e-15
1.1038128906249995431	1.1296178534059818955e-15	6.693136900094474472e-16	1.9064849767461456452e-15
1.1314082128906244318	1.3006190257269136292e-15	7.7563448105283360936e-16	2.1809368863883700128e-15
1.1596934182128899593	1.5129462995771675346e-15	9.0504779272445320023e-16	2.529155392461296416e-15
1.1886857536682122749	1.7718854352110774038e-15	1.0640612491270796053e-15	2.9505613498177420884e-15
1.2184028975099172598	2.0823849817877375058e-15	1.2622918966035263391e-15	3.4352808760342652003e-15
1.2488629699476652135	2.4573947911719276255e-15	1.5112591846187135247e-15	3.9958659779477143776e-15
1.280084544196356644	2.9205911725194889859e-15	1.8255625261225616564e-15	4.6724517374465985631e-15
1.3120866578012655435	3.4912182479857224449e-15	2.2148099965369106756e-15	5.5032282110549748638e-15
1.3448888242462970766	4.1613706716332803867e-15	2.6752859451982806539e-15	6.4729551238479509466e-15
1.378511044852454237	4.8999460844458104132e-15	3.2000172225560891814e-15	7.502919503444953343e-15
1.4129738209737656707	5.6985828516293644687e-15	3.7883831279083673262e-15	8.5719541610390481669e-15
1.448298166498109607	6.6153110492126454391e-15	4.4659041249421902016e-15	9.7992117729131511175e-15
1.4845056206605622418	7.7589947136155303995e-15	5.323339069354910186e-15	1.1309067144056466643e-14
1.5216182611770761035	9.2236606686633315568e-15	6.4635727076563902304e-15	1.3162367003293808922e-14
1.559658717706502884	1.1036532736737237168e-14	7.8359574283236406988e-15	1.5544374246955380898e-14
1.5986501856491652784	1.3181246813417588355e-14	9.2592012424662143039e-15	1.8764606471600329851e-14
1.6386164402903942161	1.5690773320082344611e-14	1.0778136331720677918e-14	2.2842573131834119911e-14
1.6795818512976541381	1.8697573968996557793e-14	1.2697947530785897182e-14	2.753195124475840523e-14
1.7215713975800952529	2.2337945113671669588e-14	1.5252553597971023578e-14	3.2714770592105016546e-14
1.7646106825195975176	2.6579419761109210169e-14	1.8399351097871772483e-14	3.8396221207983724706e-14
1.8087259495825871447	3.1180160432368397606e-14	2.1842584077114611951e-14	4.4509495815875056115e-14
1.85394409832215179	3.5889162025296072933e-14	2.5276677055762393142e-14	5.0957329083900197169e-14
1.9002927007802052906	4.0715142149415019782e-14	2.8621151390792917029e-14	5.7919500778027443053e-14
1.9478000182997103895	4.5989729933965305158e-14	3.2084661756262718489e-14	6.5921070805311489983e-14
1.9964950187572030327	5.2214274475218063548e-14	3.6146555403034272452e-14	7.5424350358555893603e-14
2.0464073942261329364	5.9855255550919793553e-14	4.1357886622695201887e-14	8.662559694478994437e-14
2.0975675790817858157	6.9163550577240735141e-14	4.8143998016837671316e-14	9.9360188715061487445e-14
2.150006768558830661	8.0013684022996024917e-14	5.6789497310823779847e-14	1.12735451696129485e-13
2.2037569377728010167	9.1821659595676194675e-14	6.7140483365341225465e-14	1.2557575918877784118e-13
2.2588508612171209755	1.0372605201730158234e-13	7.7925959084490806061e-14	1.3806816102744994421e-13
2.3153221327475486113	1.151002880850446662e-13	8.7130577123654332299e-14	1.5204853169351575475e-13
2.3732051860662370935	1.2608267320757976918e-13	9.4247988846855092336e-14	1.6867034169822294319e-13
2.4325353157178928321	1.3771481367503947105e-13	1.0100905855558006522e-13	1.8775909979514535395e-13
2.4933486986108399641	1.516662886569101594e-13	1.0952854083953662206e-13	2.100152429553585529e-13
2.5556824160761109077	1.697480559904614022e-13	1.2073365307219253524e-13	2.3866090173972690995e-13
2.6195744764780131142	1.9324432138885840955e-13	1.3408753406795713768e-13	2.784999217758329697e-13
2.6850638383899632089	2.2193966686311264213e-13	1.4910279429565717122e-13	3.3035742864507875102e-13
2.7521904343497123335	2.5327797307332333357e-13	1.6665497172619548285e-13	3.8492539994261563427e-13
2.8209951952084546534	2.8283150265790748289e-13	1.87403212690155288e-13	4.2685318862696408003e-13
2.8915200750886658199	3.0670187686026110839e-13	2.0923778786928894831e-13	4.4956526365290152108e-13
2.9638080769658823321	3.2407511055127049321e-13	2.2739377979233339355e-13	4.6186257766035480465e-13
3.0379032788900293127	3.3716008339832284697e-13	2.3896435427802506183e-13	4.7570660561744559432e-13
3.1138508608622794682	3.48467054643366496e-13	2.459011166446558376e-13	4.9381348823761840615e-13
3.1916971323838363439	3.5827102931220394122e-13	2.5152569073809733545e-13	5.1031817095009902987e-13
3.2714895606934319972	3.6484906636032940618e-13	2.5741770189649135177e-13	5.1711611223042474575e-13
3.3532767997107675306	3.6700818708435257879e-13	2.6365259338636614727e-13	5.1088065418554845165e-13
3.4371087197035361527	3.6581419022127404374e-13	2.6942815933449303179e-13	4.9668164640916362687e-13
3.5230364376961245121	3.6353292125046968854e-13	2.7319825286525285616e-13	4.8373729863522375476e-13
3.6111123486385272585	3.6149827468047244653e-13	2.7399518465797583261e-13	4.7694634765237015667e-13
3.7013901573544902845	3.5947576221069269871e-13	2.7208226297203172859e-13	4.7494027065719359126e-13
3.7939249112883519643	3.5668336882781230744e-13	2.6738553115409110385e-13	4.7580370205237491612e-13
3.8887730340705606302	3.528394726953352054e-13	2.6013781783683177488e-13	4.7857591228819554692e-13
3.9859923599223243684	3.4808293986572427999e-13	2.5220115049861919551e-13	4.8041705117530298644e-13
4.0856421689203816783	3.4234780247758394461e-13	2.456669199466581106e-13	4.7707692141326556368e-13
4.1877832231433913535	3.3524453368422950356e-13	2.4110204079182342637e-13	4.6614660330559905996e-13
4.2924778037219750715	3.2652223560746890475e-13	2.368664320980543913e-13	4.5011346437626006521e-13
4.3997897488150243817	3.1650819560757724561e-13	2.3042694779291260511e-13	4.3474705908440455351e-13
4.5097844925353998136	3.0614712732409486365e-13	2.2111302138505210463e-13	4.238830575499146401e-13
4.6225291048487839873	2.9664750524857642431e-13	2.107634621802761969e-13	4.1752845327115444824e-13
4.7380923324700034982	2.8879946772883587822e-13	2.0208025192591981501e-13	4.1273272259693258832e-13
4.856544640781753408	2.8221249873655001963e-13	1.9644294941689866216e-13	4.0543014997246838168e-13
4.9779582568012967769	2.7528192859228612852e-13	1.9294954789879844191e-13	3.9274588116285726256e-13
5.1024072132213289521	2.6636445586091061343e-13	1.8970948791467647403e-13	3.7399301493022531448e-13
5.2299673935518615764	2.5520882198660441237e-13	1.8530335534522038653e-13	3.5148604135338073058e-13
5.3607165783906571832	2.4318529890939746076e-13	1.7892253836730731335e-13	3.3052901074009619504e-13
5.4947344928504229244	2.3223487307561993968e-13	1.7070383166945335778e-13	3.1594508304232965992e-13
5.6321028551716834087	2.2380265184268817821e-13	1.6219169318815345406e-13	3.0881746153124148845e-13
5.7729054265509747168	2.1850182657403226007e-13	1.5512249126544711189e-13	3.0777644058391313756e-13
5.9172280622147486184	2.1624190020817406353e-13	1.5030109617999564768e-13	3.1111256400713805974e-13
6.0651587637701167566	2.1640937563562998962e-13	1.4774411367241803803e-13	3.1698736889675714942e-13
6.2167877328643692536	2.1798822279718149968e-13	1.4699741851416868588e-13	3.2326326379461843096e-13
6.3722074261859784627	2.1973447468976389894e-13	1.472552332350050355e-13	3.2788810493499496948e-13
6.5315126118406272582	2.2052711190704185304e-13	1.4751794732079205041e-13	3.296697654035648646e-13
6.6948004271366423623	2.1982997919635762048e-13	1.4698054991513089574e-13	3.287864944128651027e-13
6.8621704378150578663	2.1787810348498302201e-13	1.4542063188522095301e-13	3.2643832833625181552e-13
7.0337246987604338244	2.1533251843865711592e-13	1.4316478019992145146e-13	3.2387919313943137138e-13
7.2095678162294438707	2.1268981609926912871e-13	1.406828865537416927e-13	3.2155267055215089903e-13
7.3898070116351792791	2.1003209815543649957e-13	1.3823928814198196412e-13	3.1910958779147575347e-13
7.5745521869260574732	2.0726687640583954352e-13	1.3596802788263249382e-13	3.1595338054116827859e-13
7.7639159915992088656	2.0445557631853244907e-13	1.3414759779513085865e-13	3.1161260711938395105e-13
7.9580138913891884656	2.0176867677253958122e-13	1.328978860577213524e-13	3.0632992092033560154e-13
8.1569642386739165119	1.9919827777052237603e-13	1.3172693870815636392e-13	3.0122884700641156525e-13
8.3608883446407649132	1.9655276447495087385e-13	1.2996856848200222317e-13	2.9724870923769027285e-13
8.5699105532567827481	1.937694720828245491e-13	1.2750971476940920322e-13	2.9446076621813845831e-13
8.7841583170882007181	1.9111505359212033166e-13	1.2481908192843253783e-13	2.9262323632905205102e-13
9.0037622750154060469	1.8909044935314853471e-13	1.2260903987985882246e-13	2.9161959078719766735e-13
9.2288563318907907984	1.8833173295977786411e-13	1.2151830046982626838e-13	2.9188065914763356705e-13
9.4595777401880596358	1.8963781729324097544e-13	1.2181851502235836375e-13	2.9521375910011831056e-13
9.6960671836927598832	1.9378930327567806405e-13	1.2325300602131348828e-13	3.046927233367327449e-13
9.9384688632850775036	2.0094018147694046817e-13	1.2510425705301963356e-13	3.2274646349463449298e-13
10.186930584867203819	2.1011920103684334193e-13	1.2674852067925551488e-13	3.4832815726572244524e-13
10.441603849488883426	2.1956478239650358949e-13	1.2829028667077793254e-13	3.7577820519287207779e-13
10.70264394572610378	2.2779713624199022344e-13	1.3045375600120865587e-13	3.9777724207167388404e-13
10.970210044369256508	2.3446067549133703274e-13	1.3396003099882013411e-13	4.1035977628534749391e-13
11.244465295478486055	2.4009967177512937052e-13	1.3883251812844810193e-13	4.1523306761020468377e-13
11.52557692786544763	2.4524149278680631467e-13	1.4395209324232068041e-13	4.1780142566637946977e-13
11.813716351062081955	2.4971895884960487967e-13	1.4739323711875136706e-13	4.2308290141350909993e-13
12.109059259838634404	2.5259457448268774017e-13	1.474928593214806927e-13	4.3259056303885581303e-13
12.411785741334599109	2.5253259171814863002e-13	1.4393733502394898103e-13	4.4305884827778939104e-13
12.722080384867961556	2.4833429461954935261e-13	1.3786037450475720773e-13	4.4733609716156013201e-13
13.040132394489660328	2.3935665123085422966e-13	1.3059127622824265234e-13	4.387092931714413866e-13
13.366135704351901126	2.2561319453699867427e-13	1.2262884133217779484e-13	4.1508435532965526779e-13
13.700289096960696966	2.0764508416216017152e-13	1.1379756440556163503e-13	3.788875552999388065e-13
14.042796324384713813	1.8647637085009805816e-13	1.038131126070558902e-13	3.3496189462158411732e-13
14.393866232494330504	1.636467045905298152e-13	9.2681004135429303545e-14	2.8895073130851859931e-13
14.753712888306687034	1.4095670735380780717e-13	8.0802350259419079643e-14	2.458937553702025143e-13
15.122555710514353322	1.1986715915005402751e-13	6.8822716503290411887e-14	2.0877025163657178912e-13
15.50061960327720989	1.0109899949937998046e-13	5.7435811479588538925e-14	1.7795531109381052938e-13
15.888135093359139205	8.4842391965261159234e-14	4.721572285488750278e-14	1.5245411992335708866e-13
16.285338470693115909	7.1188269015941806022e-14	3.8543119330915069928e-14	1.3148312159107709163e-13
16.692471932460442474	6.0224236294795668929e-14	3.1601452947560555967e-14	1.1477189492869072843e-13
17.109783730771951582	5.1819470799725344818e-14	2.6310633504571751761e-14	1.0205978330004846189e-13
17.537528324041250727	4.5494469238447522144e-14	2.2338287792288091014e-14	9.2654672127672751178e-14
17.97596653214228013	4.0560315116693580673e-14	1.9255468207330108167e-14	8.5437505058392495026e-14
18.42536569544583358	3.6392806293534514637e-14	1.6694602248260870086e-14	7.9333207837083768553e-14
18.885999837831977999	3.262219886288963779e-14	1.4438057032088330085e-14	7.3708522987873961416e-14
19.358149833777776649	2.9122775954623419319e-14	1.2416029127948924651e-14	6.8309768812800819364e-14
19.84210357962221849	2.5873045474650549857e-14	1.0615692442357787601e-14	6.305895595300948402e-14
20.338156169112771465	2.28538196530573065e-14	9.0173063703862117558e-15	5.7921628841374092606e-14
20.846610073340588798	2.0045739369360788297e-14	7.6042312804852116553e-15	5.2843167447518888502e-14
21.367775325174104495	1.7458701196714500885e-14	6.3662659891582885091e-15	4.7878339986931663283e-14
21.901969708303454354	1.5129287820123352362e-14	5.2857608098551824721e-15	4.330414450789422339e-14
22.449518951011040002	1.308879391949115032e-14	4.3436498966299005292e-15	3.9440684756804996679e-14
23.010756924786313959	1.1334884033393264833e-14	3.5336552521046934989e-15	3.6358837205171434736e-14
23.586025847905968789	9.832880140401304311e-15	2.860102785332295392e-15	3.3804915107016040901e-14
24.175676494103615966	8.5413756099444160375e-15	2.3224092686566692136e-15	3.1413540367220515245e-14
24.780068406456202013	7.4347700261971200003e-15	1.9060792632609199811e-15	2.8999741200622100776e-14
25.399570116617606885	6.4978365741776067062e-15	1.5855695847464044135e-15	2.6628840860032727936e-14
26.034559369533045725	5.7031727501277491579e-15	1.3321124593661479123e-15	2.4416992115873216565e-14
26.685423353771369648	5.0057449293599709815e-15	1.1212356917149197493e-15	2.2348095483375014806e-14
27.352558937615651047	4.3674915222914516223e-15	9.3879456109753861134e-16	2.0318590443245926175e-14
28.036372911056037793	3.7856026867391165708e-15	7.8251013491217793392e-16	1.8313868488687088347e-14
28.737282233832438294	3.2889747598076289784e-15	6.5655713663236885437e-16	1.6475877523982649741e-14
29.455714289678244455	2.9064006297891046821e-15	5.6347391457545709813e-16	1.4991225684693714131e-14
30.192107146920200478	2.6416251641189590963e-15	4.9980088367703529147e-16	1.3961927110588557866e-14
30.94690982559320247	2.472322349212365655e-15	4.5687268651879368037e-16	1.3378733241833915212e-14
31.72058257123302738	2.3628817408753692969e-15	4.2444458147753032634e-16	1.3154155724939524276e-14
32.513597135513848002	2.2770954605353063107e-15	3.9417208145809990289e-16	1.3154568728484836951e-14
33.326437063901693136	2.1857200101324374636e-15	3.611491177350962505e-16	1.322825317324340295e-14
34.159597990499236175	2.0704470686877571822e-15	3.2373770403613279761e-16	1.3241432835266159073e-14
35.013587940261714948	1.9269525657924086252e-15	2.8276777105867792422e-16	1.3131433532583957113e-14
35.888927638768251427	1.7661568978391865773e-15	2.4088444411689128888e-16	1.2949404845218091706e-14
36.786150829737451318	1.6093975179337562872e-15	2.0191352868104260349e-16	1.2828067478444905747e-14
37.705804600480888666	1.4779611436722341414e-15	1.6959757215372014091e-16	1.2879719411461067701e-14
38.648449715492908751	1.3833064014299676172e-15	1.4610125561825429588e-16	1.3097331656320440218e-14
39.614660958380227385	1.3232124783230112919e-15	1.3151428802903685389e-16	1.3313315906809676009e-14
40.605027482339728806	1.284560228864912254e-15	1.2444437855260117335e-16	1.3259698837131481554e-14
41.620153169398214743	1.25131950423428869e-15	1.229324136252510077e-16	1.2737084187172600162e-14
42.660656998633172066	1.2156773939271771149e-15	1.2536617760875924412e-16	1.1788438909876399414e-14
43.72717342359899817	1.1868642435149619967e-15	1.3158168522249393148e-16	1.0705492410683415347e-14
44.820352759188963887	1.1887758475389952877e-15	1.4351778215518970486e-16	9.8467799214172480271e-15
45.940861578168686208	1.2440486739255130836e-15	1.638085818156288761e-16	9.4479610649322309324e-15
47.089383117622901409	1.3515714648288240099e-15	1.9177996390610547959e-16	9.5252151858465178331e-15
48.26661769556346826	1.4659716005772420089e-15	2.1967427125973173132e-16	9.7829969862881494735e-15
49.473283137952549282	1.5055038604588995225e-15	2.356024017726175729e-16	9.6201985073314917e-15
50.710115216401362659	1.4161735152762861598e-15	2.3300477812190472394e-16	8.6073231696592939604e-15
51.977868096811391752	1.2296572011486801434e-15	2.1566896941383394619e-16	7.0110078257730835926e-15
53.277314799231668019	1.0261530265174058679e-15	1.9335435670076264579e-16	5.4459079784814519722e-15
54.609247669212457765	8.611877367738551248e-16	1.7377677429954313677e-16	4.267798852631968795e-15
55.97447886094276015	7.463151296110891634e-16	1.5874403426672174617e-16	3.5087068012305168686e-15
57.373840832466328266	6.6910727602140737507e-16	1.4614528265051237274e-16	3.0634211293389169927e-15
58.808186853277980788	6.1329127012754265685e-16	1.3396501033777855142e-16	2.8076449295699843302e-15
60.278391524609922669	5.6881691996250436027e-16	1.2251365266188946889e-16	2.6409521013022425758e-15
61.785351312725168782	5.3313681315325483159e-16	1.1361203676758802295e-16	2.5018023585005995698e-15
63.329985095543293028	5.0610313159593464491e-16	1.0854294758652328363e-16	2.3598067447637138491e-15
64.913234722931861143	4.8352977523312755801e-16	1.068546778184514099e-16	2.1880281547826318575e-15
66.536065591005154829	4.5561398447797602353e-16	1.062989765061959981e-16	1.9528325641009125012e-15
68.199467230780285831	4.1349811552096557409e-16	1.0379949166804634575e-16	1.6472208947437892279e-15
69.904453911549779832	3.5832760858977700902e-16	9.7324568343958957039e-17	1.319283273098002729e-15
71.65206525933851367	3.0091748175816001329e-16	8.7283009754468520583e-17	1.0374451005115199138e-15
73.443366890821977222	2.5203853678621091103e-16	7.5861835746929377567e-17	8.3735680002847013498e-16
75.2794510630925231	2.1579395348756082228e-16	6.5216460953414195342e-17	7.1403798490469449e-16
77.161437339669831204	1.9066429924488961201e-16	5.6554294025462936473e-17	6.4279601810920556461e-16
79.090473273161563839	1.73175330393600387e-16	5.0199413219109185008e-17	5.974112670607195974e-16
81.067735104990603645	1.6026386249805788328e-16	4.5881033964161337135e-17	5.5980659988742022033e-16
83.094428482615356302	1.4989581036604570409e-16	4.3086169695698582502e-17	5.2148413572108857347e-16
85.171789194680727064	1.4080971670189070248e-16	4.1372005980239994235e-17	4.792461919090079344e-16
87.301083924547739912	1.3224301578716527796e-16	4.0416450725738841318e-17	4.3270042050840545455e-16
89.483611022661420975	1.2391162218124142874e-16	3.9874955051019064125e-17	3.850559854410249878e-16
91.720701298227950815	1.1598028017334097923e-16	3.9362834106535264818e-17	3.4172908771458051993e-16
94.013718830683643546	1.0877466116134813375e-16	3.8637548457627306868e-17	3.0622871748040206472e-16
96.364061801450731082	1.0241739319422425452e-16	3.7722730383610375916e-17	2.7806371177357013674e-16
98.773163346486981595	9.6698949546846830562e-17	3.6820300193601172209e-17	2.5395466072513555176e-16
101.24249243014915578	9.1253547727478586602e-17	3.613723846424262949e-17	2.3043293640411644489e-16
103.77355474090286691	8.5821204648832515701e-17	3.5741815826213804165e-17	2.0606896983602439118e-16
106.36789360942543681	8.0353170172138593188e-17	3.5525630708167964917e-17	1.8174573759863384109e-16
109.02709094966105852	7.4948588953921404605e-17	3.5297806601733401469e-17	1.5913994457400694497e-16
111.7527682234025832	6.976532818438151769e-17	3.4897081843279279714e-17	1.3947300919122028466e-16
114.54658742898763535	6.4980343191562527789e-17	3.4241973060503748022e-17	1.2331196551765315609e-16
117.41025211471232126	6.0745441406997601913e-17	3.3351634380815677253e-17	1.1063951498141640702e-16
120.3455084175801062	5.7104994988877486664e-17	3.2309749330592582499e-17	1.0092868314493712635e-16
123.35414612801960743	5.3936025023620944064e-17	3.1178923939753968907e-17	9.3303245518344861642e-17
126.43799978122008554	5.0983269213766563697e-17	2.9980040973825344749e-17	8.6700806779842666137e-17
129.59894977575058306	4.7985304753648562144e-17	2.8725438235441995599e-17	8.0158549834047387759e-17
