# GEOPSY output version 1.1
# Number of windows = 76
# f0 from average	3.35328
# Number of windows for f0 = 76
# f0 from windows	3.40488	2.92366	3.9653
# f0 amplitude	3.26185e-13
# Position	0 0 0
# Category	Default
# Frequency	Average	Min	Max
1	8.5893973689548559195e-16	5.4308862912766673026e-16	1.3584844757349039248e-15
1.0249999999999999112	9.8144343839464912607e-16	6.3284845615377711383e-16	1.5220566841895778805e-15
1.0506249999999999201	1.1187454622450779361e-15	7.3354597104872321841e-16	1.7062208214498129399e-15
1.0768906249999996572	1.2679685832156731824e-15	8.4959881697487921395e-16	1.8923570700658110985e-15
1.1038128906249995431	1.4332610925238407008e-15	9.8629669701036752173e-16	2.0827783014678802304e-15
1.1314082128906244318	1.6241889193478657171e-15	1.1373501230161185678e-15	2.3194173828695338123e-15
1.1596934182128899593	1.8489874940053345069e-15	1.292110157019657248e-15	2.645869420973924365e-15
1.1886857536682122749	2.1119633595070722693e-15	1.4564291406705002537e-15	3.0625514879817338523e-15
1.2184028975099172598	2.4228175638098943017e-15	1.6476577814657568502e-15	3.5626602887668322601e-15
1.2488629699476652135	2.8095439739603901583e-15	1.8901183883606594053e-15	4.1762131886687675322e-15
1.280084544196356644	3.315819556269510295e-15	2.2316212978695923047e-15	4.9267585590061069215e-15
1.3120866578012655435	3.9766682017623644846e-15	2.7257091674431444501e-15	5.8017525038234948166e-15
1.3448888242462970766	4.7882857446132099889e-15	3.3700312602537519269e-15	6.8034028771411770982e-15
1.378511044852454237	5.7032042956614646788e-15	4.0794097306307461683e-15	7.9733445242878868604e-15
1.4129738209737656707	6.6707921308634935403e-15	4.7641523554426861465e-15	9.3404795508592430299e-15
1.448298166498109607	7.692851916851522818e-15	5.4250757712107075906e-15	1.0908597982844215284e-14
1.4845056206605622418	8.8384699477439235178e-15	6.1566435773898366956e-15	1.2688496586689125551e-14
1.5216182611770761035	1.021016055628070319e-14	7.0839042409380706125e-15	1.4716090878612096572e-14
1.559658717706502884	1.1907093392698943385e-14	8.2891147878993567258e-15	1.7104223634280822552e-14
1.5986501856491652784	1.401987254723157381e-14	9.7919447727015585407e-15	2.0073318508554892437e-14
1.6386164402903942161	1.665263335190691146e-14	1.1589915340787400375e-14	2.3926852733525008169e-14
1.6795818512976541381	1.9927911621978596198e-14	1.3733355100201118972e-14	2.8916580013836091941e-14
1.7215713975800952529	2.3932474641804943441e-14	1.6353850300911328826e-14	3.502314940774033442e-14
1.7646106825195975176	2.8634341381687226278e-14	1.9538082369190601223e-14	4.1965505665793358011e-14
1.8087259495825871447	3.3867041286205887834e-14	2.3215825439425849721e-14	4.9404940973313078454e-14
1.85394409832215179	3.9426891133214202899e-14	2.7239039794173535082e-14	5.7068081554138701865e-14
1.9002927007802052906	4.5162614354117883552e-14	3.1465080311995863491e-14	6.4823026513018832994e-14
1.9478000182997103895	5.0938985909350795663e-14	3.5728366162471173346e-14	7.2625215316970697268e-14
1.9964950187572030327	5.6653668482129848043e-14	3.9937398416800894081e-14	8.0366730926890823939e-14
2.0464073942261329364	6.250022693035973999e-14	4.437708384679705016e-14	8.8024674623328217723e-14
2.0975675790817858157	6.9216602051150662762e-14	4.9782413620100098193e-14	9.6237559634371956565e-14
2.150006768558830661	7.7825304810765043035e-14	5.6781644600833882173e-14	1.0666788733342782303e-13
2.2037569377728010167	8.8860204885491393782e-14	6.5239355465828439594e-14	1.210333234580682824e-13
2.2588508612171209755	1.0170050372563051278e-13	7.4312254405469619667e-14	1.3918286480198223238e-13
2.3153221327475486113	1.1488196011251288249e-13	8.3048256224167291986e-14	1.5891802380135204649e-13
2.3732051860662370935	1.2757149889763609086e-13	9.1219532328348834239e-14	1.7841011585554739929e-13
2.4325353157178928321	1.4070537755016253208e-13	9.9769165504529603874e-14	1.984380962937385302e-13
2.4933486986108399641	1.5632860595627869054e-13	1.1001324426040723769e-13	2.2214264477453188847e-13
2.5556824160761109077	1.7584869715423245892e-13	1.226556441519304513e-13	2.5211040637100823905e-13
2.6195744764780131142	1.9876462302424901392e-13	1.3728386916217008749e-13	2.8777871433170874393e-13
2.6850638383899632089	2.2274605090661799877e-13	1.5239701189922406157e-13	3.2556939651351707441e-13
2.7521904343497123335	2.4503246398241744168e-13	1.6669619699507981358e-13	3.6018163274034895856e-13
2.8209951952084546534	2.6395131216557593867e-13	1.8001889016996002876e-13	3.87016579916429702e-13
2.8915200750886658199	2.7930470404915983518e-13	1.9267180251493320149e-13	4.0489120195957288807e-13
2.9638080769658823321	2.9175801193412805986e-13	2.0489807301390940014e-13	4.1543942446923990948e-13
3.0379032788900293127	3.0224069698284648043e-13	2.1653070944412384752e-13	4.218775209631394975e-13
3.1138508608622794682	3.1152375215035789869e-13	2.2663065195731704457e-13	4.2821678054438628788e-13
3.1916971323838363439	3.1964210504359508659e-13	2.3434142244167986148e-13	4.3599238347257110064e-13
3.2714895606934319972	3.2554294805538701579e-13	2.3925338126467276077e-13	4.4295386952694555382e-13
3.3532767997107675306	3.2766673896097538571e-13	2.4055029016517859357e-13	4.4633283022687421068e-13
3.4371087197035361527	3.252732861504642877e-13	2.3780593386462340178e-13	4.4491198753413988631e-13
3.5230364376961245121	3.1919813483537778685e-13	2.322319320041100956e-13	4.3873143715904150456e-13
3.6111123486385272585	3.1119496937879454038e-13	2.2548852088610033856e-13	4.2947777823060995492e-13
3.7013901573544902845	3.0268631169633116589e-13	2.1817184004180058095e-13	4.1993963689711202441e-13
3.7939249112883519643	2.9444023124515489224e-13	2.1042134488588813226e-13	4.1200691794226087512e-13
3.8887730340705606302	2.8723534873922527254e-13	2.0286154629268546294e-13	4.067017484245568987e-13
3.9859923599223243684	2.8215785545476172182e-13	1.9635760813536238189e-13	4.054493031914894437e-13
4.0856421689203816783	2.7972488930042932329e-13	1.9163651943138090564e-13	4.0830429359866824774e-13
4.1877832231433913535	2.7866652396666378103e-13	1.8887940113984221782e-13	4.1113552410180024164e-13
4.2924778037219750715	2.7604261703711110201e-13	1.8697010919108292134e-13	4.075492427659732739e-13
4.3997897488150243817	2.6940830048997368898e-13	1.8374993386196009418e-13	3.9499786937295673167e-13
4.5097844925353998136	2.5932185657029647119e-13	1.7817321195831915393e-13	3.7742949434394773796e-13
4.6225291048487839873	2.4928626081518960658e-13	1.7214055894835530174e-13	3.6100521696262613325e-13
4.7380923324700034982	2.4291551429359885883e-13	1.688821789204289521e-13	3.4940304217845270677e-13
4.856544640781753408	2.4131273698555512573e-13	1.6965963909513940364e-13	3.4322740129610473393e-13
4.9779582568012967769	2.4284251364697577586e-13	1.7260193225017631539e-13	3.4166759123475208874e-13
5.1024072132213289521	2.4514945877041600402e-13	1.7467898033265779771e-13	3.4404973638486479364e-13
5.2299673935518615764	2.4748554611024420288e-13	1.750712096005227581e-13	3.4985247244960439699e-13
5.3607165783906571832	2.5097196233458080266e-13	1.7560025534035393887e-13	3.5869495608640776003e-13
5.4947344928504229244	2.5684357169744282009e-13	1.7780715097429261687e-13	3.7101218910952126251e-13
5.6321028551716834087	2.649115131464985414e-13	1.8123547560860680054e-13	3.8722060105452520906e-13
5.7729054265509747168	2.7376045148314407141e-13	1.8450155902988321199e-13	4.062013632313875085e-13
5.9172280622147486184	2.8214628183176185848e-13	1.8696746232046236082e-13	4.2577742332001249043e-13
6.0651587637701167566	2.8985375431159661434e-13	1.8905380267900622756e-13	4.443983548491564706e-13
6.2167877328643692536	2.9718075547219752039e-13	1.9154800336593410979e-13	4.6106667713108986043e-13
6.3722074261859784627	3.0393604923647272e-13	1.9470834580486486006e-13	4.7443843068778966138e-13
6.5315126118406272582	3.091186139819600604e-13	1.9761948196876794908e-13	4.8352680898753478425e-13
6.6948004271366423623	3.1148766973498292003e-13	1.9880846134367219473e-13	4.8803037728463337696e-13
6.8621704378150578663	3.1036410333267069842e-13	1.9758922760154229947e-13	4.875057097330381981e-13
7.0337246987604338244	3.0587565471480869444e-13	1.9399796632848994214e-13	4.8227266459479859703e-13
7.2095678162294438707	2.984474081181001947e-13	1.8819641359728213844e-13	4.7328667805016125479e-13
7.3898070116351792791	2.8821984484529443469e-13	1.8117406211300265881e-13	4.5851308953282947209e-13
7.5745521869260574732	2.7514251761260738872e-13	1.7455551704479738724e-13	4.3369242221530977546e-13
7.7639159915992088656	2.5961008457092840076e-13	1.6875979818237914159e-13	3.9936878769011123776e-13
7.9580138913891884656	2.4280080098382869105e-13	1.62363422085872979e-13	3.6308811554371728038e-13
8.1569642386739165119	2.2625457137554543704e-13	1.5377931785204562702e-13	3.3288696934905034417e-13
8.3608883446407649132	2.11205184192884291e-13	1.4339955284874797352e-13	3.1107230771493754619e-13
8.5699105532567827481	1.9834373583113189067e-13	1.3327777356808769665e-13	2.9517478038715931704e-13
8.7841583170882007181	1.8793549961652939493e-13	1.2512500780985315225e-13	2.8227572276989071652e-13
9.0037622750154060469	1.7992027583500524129e-13	1.1949977443099845809e-13	2.7089009841802008453e-13
9.2288563318907907984	1.7399901848184265613e-13	1.1606838090614745017e-13	2.6084329079360061192e-13
9.4595777401880596358	1.699159538018629357e-13	1.1406171819594686605e-13	2.5312113312898305202e-13
9.6960671836927598832	1.678363393665940163e-13	1.1275612628014077127e-13	2.4982267253482084808e-13
9.9384688632850775036	1.6834055980520504214e-13	1.1171807585209715864e-13	2.5366122589729376394e-13
10.186930584867203819	1.7181200713631746196e-13	1.1093409078301733526e-13	2.6609823533821273386e-13
10.441603849488883426	1.776128861893648465e-13	1.1096532521666884727e-13	2.8429004537155614102e-13
10.70264394572610378	1.8377153979755633884e-13	1.1242908170357320382e-13	3.0038472544503132795e-13
10.970210044369256508	1.8778133441003097418e-13	1.1513182083143115732e-13	3.0627353322623165628e-13
11.244465295478486055	1.8815549383843035001e-13	1.1786744551823731827e-13	3.0035850616704736613e-13
11.52557692786544763	1.8521005466084160736e-13	1.1908804770671080355e-13	2.8804540008878589316e-13
11.813716351062081955	1.8021198377632213072e-13	1.178485634761695288e-13	2.7557704683574288336e-13
12.109059259838634404	1.7397530321686912204e-13	1.1389170103392349062e-13	2.6575602835527220884e-13
12.411785741334599109	1.6644945425642967287e-13	1.0741830634772630268e-13	2.5792084947399382045e-13
12.722080384867961556	1.5734831146575273111e-13	9.9332430868869484031e-14	2.4924881938918478256e-13
13.040132394489660328	1.4676585183540853093e-13	9.0722023148869638806e-14	2.3743094033106857567e-13
13.366135704351901126	1.3514886717554295082e-13	8.2098583089393952496e-14	2.2247906859664397061e-13
13.700289096960696966	1.2303336641048955952e-13	7.3626312644806768309e-14	2.0559510189412541354e-13
14.042796324384713813	1.110091691947023476e-13	6.5581853495448027104e-14	1.8790313155991209939e-13
14.393866232494330504	9.973445682371083689e-14	5.8277112048732577886e-14	1.7068385045578059362e-13
14.753712888306687034	8.9736165504810073576e-14	5.1830250988682216407e-14	1.5536446854685396459e-13
15.122555710514353322	8.1175950488530184425e-14	4.6207230494640898241e-14	1.426083075565534283e-13
15.50061960327720989	7.3863322965322698547e-14	4.1309125495671115536e-14	1.3207228218983461064e-13
15.888135093359139205	6.7480146368864498294e-14	3.6935287380177681032e-14	1.2328508797273290145e-13
16.285338470693115909	6.1761650743446043741e-14	3.2857438862352038009e-14	1.1609247813060849038e-13
16.692471932460442474	5.6535346715009435294e-14	2.8993388038385498654e-14	1.1024049427940922362e-13
17.109783730771951582	5.1713532152351409377e-14	2.5424305989059598805e-14	1.05186328736881304e-13
17.537528324041250727	4.7291659769822401216e-14	2.2284840583282595513e-14	1.0035975242570922443e-13
17.97596653214228013	4.3294493666192658783e-14	1.96681990189129171e-14	9.530171928856133831e-14
18.42536569544583358	3.9671870470859469278e-14	1.7549656831435084971e-14	8.9680232597913007092e-14
18.885999837831977999	3.6262358080981834993e-14	1.5767584485612992752e-14	8.3396325847701789803e-14
19.358149833777776649	3.2889126762641168066e-14	1.4123419735039164867e-14	7.6588721393408330304e-14
19.84210357962221849	2.9495117279724462747e-14	1.2505873026227312229e-14	6.9564271244415857184e-14
20.338156169112771465	2.6168887171835881703e-14	1.0907504660347285553e-14	6.2783439213352838112e-14
20.846610073340588798	2.3043513776983835011e-14	9.3802694076433480387e-15	5.6608558252854108719e-14
21.367775325174104495	2.0190611200619726674e-14	7.9880471182846494034e-15	5.103384777506567146e-14
21.901969708303454354	1.7608892356011747272e-14	6.7549219843878306833e-15	4.5903282187752689408e-14
22.449518951011040002	1.5279498526980107291e-14	5.657395370872186737e-15	4.1266883420946916994e-14
23.010756924786313959	1.3194916522052633509e-14	4.6661666908917169833e-15	3.731238799586593342e-14
23.586025847905968789	1.1344165929909380234e-14	3.7773489804102162717e-15	3.4068893637500539025e-14
24.175676494103615966	9.7010858824782341247e-15	3.0030794069594302912e-15	3.1338188088241211016e-14
24.780068406456202013	8.240324149483952243e-15	2.353059116073822492e-15	2.8857303934576586635e-14
25.399570116617606885	6.954070849579836567e-15	1.8289887803815337486e-15	2.6440348841772639092e-14
26.034559369533045725	5.8437787526807078171e-15	1.4216185519949685653e-15	2.4021739208706775225e-14
26.685423353771369648	4.9006422718109779993e-15	1.1096703469425026114e-15	2.1642729070334491931e-14
27.352558937615651047	4.1029486410299600594e-15	8.6750376886650184525e-16	1.9405319210227167968e-14
28.036372911056037793	3.4319412448961327386e-15	6.7652901462276232733e-16	1.740977911344547822e-14
28.737282233832438294	2.8832931418011664507e-15	5.2901082804561588211e-16	1.5714951189696234984e-14
29.455714289678244455	2.4596033070449118308e-15	4.2181510641299534014e-16	1.4341943510442015186e-14
30.192107146920200478	2.1547958945604172969e-15	3.4938793607434761634e-16	1.3289369402343634102e-14
30.94690982559320247	1.9480189555651539941e-15	3.0264265722545134675e-16	1.2538806941594694623e-14
31.72058257123302738	1.8095524766884415321e-15	2.7181907886945505277e-16	1.2046542794230745245e-14
32.513597135513848002	1.7103190582720083949e-15	2.4933221868080077188e-16	1.1732103041337501946e-14
33.326437063901693136	1.6279767821482801202e-15	2.3067543073013333446e-16	1.1489339782850383897e-14
34.159597990499236175	1.5488188612359813487e-15	2.1352480614070153581e-16	1.1234478598892222883e-14
35.013587940261714948	1.4672908328686592279e-15	1.9651984197280651532e-16	1.0955343575527185876e-14
35.888927638768251427	1.3849208187496275397e-15	1.7900233692497825606e-16	1.0714975609564220243e-14
36.786150829737451318	1.3080514450803651665e-15	1.613741261541300239e-16	1.0602682249957715616e-14
37.705804600480888666	1.2433087909264876526e-15	1.4495966096296783659e-16	1.0663771833668865645e-14
38.648449715492908751	1.1923866700304159553e-15	1.3114580202193659739e-16	1.0841261778462444867e-14
39.614660958380227385	1.1501470261823489711e-15	1.2053708704527312594e-16	1.0974532521590218165e-14
40.605027482339728806	1.108578490084048826e-15	1.1288332711143523564e-16	1.0886871428442648037e-14
41.620153169398214743	1.0644006722104225499e-15	1.0789348496079543981e-16	1.0500622826426189627e-14
42.660656998633172066	1.023839051451222897e-15	1.0610001336134401995e-16	9.8797952051762230487e-15
43.72717342359899817	9.9946252029726272143e-16	1.0874288608070484481e-16	9.1861211844018178669e-15
44.820352759188963887	1.001551689389004121e-15	1.1672197946973395113e-16	8.5939751114148458604e-15
45.940861578168686208	1.0310382055470001098e-15	1.2949975788407608947e-16	8.208816747357753522e-15
47.089383117622901409	1.0786105252320506261e-15	1.449659472836005214e-16	8.0253375840422053257e-15
48.26661769556346826	1.1307119696373375944e-15	1.6105362758476353478e-16	7.9384089477168706243e-15
49.473283137952549282	1.1777784592597128713e-15	1.7771997318002791592e-16	7.8053247154781352304e-15
50.710115216401362659	1.2156481615703286834e-15	1.9638895637726531548e-16	7.5248653487951194794e-15
51.977868096811391752	1.2390938672083936996e-15	2.1714160933929920769e-16	7.0707480543461994996e-15
53.277314799231668019	1.2380298658909031674e-15	2.3684477079209045041e-16	6.4714029518655239681e-15
54.609247669212457765	1.2028564239477694392e-15	2.5011722317778718627e-16	5.784741883224743334e-15
55.97447886094276015	1.1309957772153886573e-15	2.5189439976239059241e-16	5.0781257911476059649e-15
57.373840832466328266	1.0258799159806186269e-15	2.394474701471124395e-16	4.395242102018476957e-15
58.808186853277980788	8.9436044144143516496e-16	2.1389859531799216429e-16	3.7395318002260693091e-15
60.278391524609922669	7.4978013930225923654e-16	1.8104391930538503544e-16	3.1051595626575337806e-15
61.785351312725168782	6.1293260720786903576e-16	1.4913861354275758418e-16	2.5190416623453975639e-15
63.329985095543293028	5.029461856778342692e-16	1.2448439972818190198e-16	2.0320206085278357875e-15
64.913234722931861143	4.2712936090724853252e-16	1.0907805077514853847e-16	1.6725591413905253768e-15
66.536065591005154829	3.8014288750086905162e-16	1.0136090641695731388e-16	1.4256839251520604424e-15
68.199467230780285831	3.4934222931301911551e-16	9.7722824850004629171e-17	1.2488381641516194709e-15
69.904453911549779832	3.2110764616299414965e-16	9.3774992929491172578e-17	1.0995481546116085006e-15
71.65206525933851367	2.8737418574793747313e-16	8.6254117856272407046e-17	9.5744904344047561517e-16
73.443366890821977222	2.4912122075432799692e-16	7.4917283341228488561e-17	8.2839873340646078097e-16
75.2794510630925231	2.1291578332666081407e-16	6.223696978687420592e-17	7.283955331508820123e-16
77.161437339669831204	1.8443108279130742285e-16	5.1159419925122809834e-17	6.648790066298321377e-16
79.090473273161563839	1.654352928388549472e-16	4.3274428759625849553e-17	6.3244823562436602618e-16
81.067735104990603645	1.5454540519073301403e-16	3.8589536800294883592e-17	6.1893156140151789079e-16
83.094428482615356302	1.4882239130647342687e-16	3.6296315350249487553e-17	6.1020254922445898136e-16
85.171789194680727064	1.4497034592779878952e-16	3.546313197049956677e-17	5.9262676561981029944e-16
87.301083924547739912	1.4037404018062174768e-16	3.5293606821740043886e-17	5.5831276344624160408e-16
89.483611022661420975	1.3394672108240843436e-16	3.5155845433221045344e-17	5.1034824700230984392e-16
91.720701298227950815	1.262147394166519726e-16	3.4653039220224499193e-17	4.5970456861734852367e-16
94.013718830683643546	1.1850392850655943311e-16	3.3738975296039419142e-17	4.1623021885718807396e-16
96.364061801450731082	1.1197628830056077261e-16	3.2700605055605734965e-17	3.8343905625748801261e-16
98.773163346486981595	1.071545247299254814e-16	3.1971191678425044968e-17	3.5913869853792824677e-16
101.24249243014915578	1.0383939231856805674e-16	3.1875429381047195067e-17	3.3827369878508138101e-16
103.77355474090286691	1.0111787437289036894e-16	3.2387351060595898972e-17	3.1570425437267947254e-16
106.36789360942543681	9.7576459389994183885e-17	3.3032893610792397388e-17	2.8823286083470627607e-16
109.02709094966105852	9.2027851491546232087e-17	3.3134321528910271985e-17	2.5559978473561404784e-16
111.7527682234025832	8.4422552161278924826e-17	3.2337475913522243463e-17	2.2039961722688330071e-16
114.54658742898763535	7.5960712484015916079e-17	3.090051029334163878e-17	1.8672927360434700196e-16
117.41025211471232126	6.8138963483478435537e-17	2.9392446882410773621e-17	1.5796297474577575719e-16
120.3455084175801062	6.1760761905328598254e-17	2.8188806693250041322e-17	1.3531582775513744648e-16
123.35414612801960743	5.6750303901331604786e-17	2.7306860532654575841e-17	1.1794094707599877737e-16
126.43799978122008554	5.2585623876656432013e-17	2.6596113220313385988e-17	1.0397187798046964885e-16
129.59894977575058306	4.8796715267096111109e-17	2.5933317161502941457e-17	9.1817001505412321482e-17
