# GEOPSY output version 1.1
# Number of windows = 77
# f0 from average	3.70139
# Number of windows for f0 = 77
# f0 from windows	3.52982	3.00188	4.15061
# f0 amplitude	3.2446e-13
# Position	0 0 0
# Category	Default
# Frequency	Average	Min	Max
1	1.3680320209090455372e-15	9.8006397756159215715e-16	1.909581061114831214e-15
1.0249999999999999112	1.4700530976725508286e-15	1.0701800666910676679e-15	2.0193387797424759779e-15
1.0506249999999999201	1.6104630538128678605e-15	1.1778846554315689119e-15	2.2019059639978025646e-15
1.0768906249999996572	1.7860533277569995375e-15	1.2980729313943202029e-15	2.4574786303920075634e-15
1.1038128906249995431	1.9903162777451809727e-15	1.4416986876896017099e-15	2.7477023592257819584e-15
1.1314082128906244318	2.2173566940968824602e-15	1.6099290584775115513e-15	3.0539673055568579936e-15
1.1596934182128899593	2.4638088509192756904e-15	1.7837334917158218304e-15	3.4031732218185364425e-15
1.1886857536682122749	2.7314628852350713678e-15	1.9636549890815862014e-15	3.7994910179747033125e-15
1.2184028975099172598	3.0336897699077681969e-15	2.1822454504465985556e-15	4.2173411877933294433e-15
1.2488629699476652135	3.3999203611555255926e-15	2.4678162269650002765e-15	4.6840839831968006925e-15
1.280084544196356644	3.8715230870265620534e-15	2.8499059000819229542e-15	5.2593634803692355138e-15
1.3120866578012655435	4.4918815506459481517e-15	3.3740422003716011084e-15	5.9800674285612808371e-15
1.3448888242462970766	5.2940359796708701411e-15	4.0390715488001331896e-15	6.9389255960012626225e-15
1.378511044852454237	6.2844649210833240108e-15	4.7731482302728032757e-15	8.2743081586782332617e-15
1.4129738209737656707	7.4276619734256341245e-15	5.5597160786756021942e-15	9.9231978055641014203e-15
1.448298166498109607	8.6599881687436444106e-15	6.4310020112220940533e-15	1.1661541226688001745e-14
1.4845056206605622418	9.9571506270679440153e-15	7.3588065549446763834e-15	1.347295215193558398e-14
1.5216182611770761035	1.1413088157033496234e-14	8.3531523065362482757e-15	1.5593943040915507564e-14
1.559658717706502884	1.3243080554545237979e-14	9.6226377375368695036e-15	1.8225686901839710711e-14
1.5986501856491652784	1.5690835253312717291e-14	1.1472492818391176425e-14	2.1460227942084420597e-14
1.6386164402903942161	1.8907998908804153704e-14	1.4079599853265610691e-14	2.5392228931308578869e-14
1.6795818512976541381	2.2899225009850909692e-14	1.7407133185218712799e-14	3.0124116387933115755e-14
1.7215713975800952529	2.7596822708281119159e-14	2.1333174932584974324e-14	3.5699544301257834273e-14
1.7646106825195975176	3.3000035452719755475e-14	2.5823909377836098226e-14	4.217031294322227806e-14
1.8087259495825871447	3.9171757348631388858e-14	3.0868128658472182691e-14	4.9709089616578129832e-14
1.85394409832215179	4.6021670629375587923e-14	3.6179943183985512428e-14	5.8540560905475078717e-14
1.9002927007802052906	5.3120124072005262235e-14	4.1143281790616213507e-14	6.8583434733901202538e-14
1.9478000182997103895	5.9891940341460931191e-14	4.538223175583516184e-14	7.9040725391472185277e-14
1.9964950187572030327	6.6190690264303967021e-14	4.9212726729801875085e-14	8.9025903842306003917e-14
2.0464073942261329364	7.2664836506412593387e-14	5.3526975326413561006e-14	9.8645186512119270185e-14
2.0975675790817858157	8.0431866684135930836e-14	5.9334530641342505248e-14	1.0903069609498206326e-13
2.150006768558830661	9.0302119104341579141e-14	6.7091481726154427158e-14	1.2154259385742282499e-13
2.2037569377728010167	1.0215363782652928526e-13	7.6211976026630841594e-14	1.3692553671023136399e-13
2.2588508612171209755	1.1495929619998976739e-13	8.5380323353574522744e-14	1.5478554383155422478e-13
2.3153221327475486113	1.2758128322196491059e-13	9.3738559784010383148e-14	1.7364235023525185121e-13
2.3732051860662370935	1.3974000409373731729e-13	1.0155548241742870554e-13	1.9228177818951996776e-13
2.4325353157178928321	1.5226061201039482934e-13	1.0966339210689068238e-13	2.1140412971343125779e-13
2.4933486986108399641	1.665406682445432921e-13	1.1904243247698867881e-13	2.329908218626199776e-13
2.5556824160761109077	1.8388523967268695475e-13	1.3048103223765602928e-13	2.5914710199328934646e-13
2.6195744764780131142	2.0495848478235704356e-13	1.4363286744533859774e-13	2.9246774245641500756e-13
2.6850638383899632089	2.2927663644028928041e-13	1.5726576009556556491e-13	3.3426078241970000699e-13
2.7521904343497123335	2.5487084959193882805e-13	1.7087625010587430299e-13	3.8015318062907076375e-13
2.8209951952084546534	2.785360245386241302e-13	1.8459733079933698266e-13	4.2027864991241617467e-13
2.8915200750886658199	2.9706203419713886281e-13	1.979813982367184459e-13	4.45727997414333134e-13
2.9638080769658823321	3.0903857874957806049e-13	2.0997103192748382011e-13	4.5484771055724952226e-13
3.0379032788900293127	3.1563818551250033553e-13	2.1976613141424058282e-13	4.5333402154599622923e-13
3.1138508608622794682	3.1927496517914369289e-13	2.2743110068336806373e-13	4.4820828410825165513e-13
3.1916971323838363439	3.2148343608579496889e-13	2.3318752628448777166e-13	4.4321238500313659192e-13
3.2714895606934319972	3.2243022603124400879e-13	2.3639175067854716767e-13	4.3978375032184955845e-13
3.3532767997107675306	3.2224731594292157788e-13	2.3677243350165434009e-13	4.3857864320041952471e-13
3.4371087197035361527	3.2224151029451582082e-13	2.3569358286142757842e-13	4.4057029341329773489e-13
3.5230364376961245121	3.2415672823736714827e-13	2.3470829893204343327e-13	4.4769437186359595732e-13
3.6111123486385272585	3.2807504444344510464e-13	2.343862596522665443e-13	4.592130739500353512e-13
3.7013901573544902845	3.3142385941777829547e-13	2.3394705335863534954e-13	4.6951552932359616423e-13
3.7939249112883519643	3.307631812807232317e-13	2.3126454488488186834e-13	4.7306984365201113991e-13
3.8887730340705606302	3.2519630575251564254e-13	2.25232353998699486e-13	4.6952684815297124338e-13
3.9859923599223243684	3.1738423999747554481e-13	2.1766137329196009929e-13	4.6279573759583548794e-13
4.0856421689203816783	3.1061859373643849832e-13	2.1115601988714474159e-13	4.5693184985381805159e-13
4.1877832231433913535	3.0544911398226112742e-13	2.066293761950125856e-13	4.5152902724003053235e-13
4.2924778037219750715	2.9955049291644347605e-13	2.0327467203377616455e-13	4.4142488047686834189e-13
4.3997897488150243817	2.9065678749447434754e-13	1.9957400871878189734e-13	4.2330846916869835382e-13
4.5097844925353998136	2.7920165117661383843e-13	1.9491415896206150982e-13	3.9993791336072506525e-13
4.6225291048487839873	2.6777409292362270726e-13	1.9047958574836091755e-13	3.7643385541479708563e-13
4.7380923324700034982	2.5858806583807731918e-13	1.8760352704873636261e-13	3.5643140001577179303e-13
4.856544640781753408	2.5198454680712822736e-13	1.8586804166816032753e-13	3.4161984631525204416e-13
4.9779582568012967769	2.4683596909983013182e-13	1.8351098688530497386e-13	3.32012794849893703e-13
5.1024072132213289521	2.4164090691743664416e-13	1.7911947515081283548e-13	3.259853672902877013e-13
5.2299673935518615764	2.3509334674037385552e-13	1.7286936675933294544e-13	3.1971472284348941274e-13
5.3607165783906571832	2.2618419471598312391e-13	1.6594925277742090554e-13	3.0828273754227182736e-13
5.4947344928504229244	2.1447803582535239146e-13	1.5882154056696299032e-13	2.896384689840361134e-13
5.6321028551716834087	2.0055708281590718533e-13	1.5073842673051590958e-13	2.6684067453839074628e-13
5.7729054265509747168	1.8597759185258684808e-13	1.4085063248276832153e-13	2.4556272174013015178e-13
5.9172280622147486184	1.7259864032699315381e-13	1.2976590984594218317e-13	2.2956946611088933981e-13
6.0651587637701167566	1.6180677722250538759e-13	1.1957504256750767412e-13	2.1895399401888075231e-13
6.2167877328643692536	1.5403891258405687433e-13	1.1177127250686996351e-13	2.1229056498949933003e-13
6.3722074261859784627	1.4872460361148244534e-13	1.0624274270705461144e-13	2.0819311659133077964e-13
6.5315126118406272582	1.4463028198664103603e-13	1.0218294121537247605e-13	2.0471047533703595197e-13
6.6948004271366423623	1.4053734479487063542e-13	9.8858367963643342926e-14	1.9978830005828122343e-13
6.8621704378150578663	1.3585175125263745398e-13	9.5473295419501035165e-14	1.9330743992145458905e-13
7.0337246987604338244	1.3061625631473502398e-13	9.1299663703463358433e-14	1.86863847265511667e-13
7.2095678162294438707	1.2500894775009984823e-13	8.6297395313984302233e-14	1.8108584808068749959e-13
7.3898070116351792791	1.1899980861710256825e-13	8.0848837997002831926e-14	1.7515346913745381619e-13
7.5745521869260574732	1.1253008201387156897e-13	7.5225559522795422945e-14	1.6833400028365914698e-13
7.7639159915992088656	1.0584908605241952825e-13	6.9932670019444396253e-14	1.6021165808508804963e-13
7.9580138913891884656	9.9505763735750557052e-14	6.5698423887767023529e-14	1.5070981053593646557e-13
8.1569642386739165119	9.3991207464905268829e-14	6.2786445920213332464e-14	1.4070468476488098377e-13
8.3608883446407649132	8.9464349033501292205e-14	6.0850983000306311983e-14	1.3153229994571911054e-13
8.5699105532567827481	8.5820693557271918992e-14	5.945070479031079481e-14	1.2388736968937572842e-13
8.7841583170882007181	8.2900323658058645456e-14	5.8374429606862464206e-14	1.1773072060652659029e-13
9.0037622750154060469	8.0566315901036804575e-14	5.7541696928040187848e-14	1.1280395963961590347e-13
9.2288563318907907984	7.8701377184874456564e-14	5.6853799253713933022e-14	1.0894446549042656852e-13
9.4595777401880596358	7.7315220027665283799e-14	5.6178437435214773572e-14	1.0640458369494061025e-13
9.6960671836927598832	7.6702020512104890547e-14	5.5518389561311742509e-14	1.0596849074921826786e-13
9.9384688632850775036	7.737797760848214049e-14	5.5242924384467098766e-14	1.0838223148921952167e-13
10.186930584867203819	7.9716403531165478037e-14	5.5920877398312692488e-14	1.1363743359533470543e-13
10.441603849488883426	8.3497918252091047873e-14	5.7737255938112843265e-14	1.207522290270582186e-13
10.70264394572610378	8.7703003224834701348e-14	6.0136728259467893204e-14	1.2790547469539749996e-13
10.970210044369256508	9.0843800935568565725e-14	6.2111960335637798355e-14	1.3286645798693523895e-13
11.244465295478486055	9.1757871998075340154e-14	6.2838888898507117021e-14	1.3398561338685927467e-13
11.52557692786544763	9.0222102129802587266e-14	6.197096751857533233e-14	1.3135227734310613063e-13
11.813716351062081955	8.6805564674261063678e-14	5.9562743990050153084e-14	1.2650871255488265319e-13
12.109059259838634404	8.224367978688719919e-14	5.6058774006394963691e-14	1.2065948613354308647e-13
12.411785741334599109	7.7087852773901942301e-14	5.2136409469164744978e-14	1.1398055803603814289e-13
12.722080384867961556	7.1791841886106735479e-14	4.8343973663894252742e-14	1.0661243110119164118e-13
13.040132394489660328	6.6817624126870818849e-14	4.4983317115057278762e-14	9.9250014900865424984e-14
13.366135704351901126	6.2488919621702623163e-14	4.2117326740770496007e-14	9.2713982051183131508e-14
13.700289096960696966	5.8775154440057502974e-14	3.9538525862305586339e-14	8.7370955393812701341e-14
14.042796324384713813	5.5277452969125015988e-14	3.6857746395260954872e-14	8.2902431797802652883e-14
14.393866232494330504	5.1456218445054353353e-14	3.3681251828444907495e-14	7.861175796408636065e-14
14.753712888306687034	4.6897791580204135979e-14	2.9786272727436352574e-14	7.3839478850751937431e-14
15.122555710514353322	4.1413661021985604654e-14	2.5306782915406333639e-14	6.7772001086705163673e-14
15.50061960327720989	3.5047639749485647036e-14	2.0644478786219359627e-14	5.94995429397650038e-14
15.888135093359139205	2.8161291017678020588e-14	1.6143808338024506347e-14	4.9124611440933278722e-14
16.285338470693115909	2.1473312470628533404e-14	1.2044638010237531916e-14	3.8282856493431264557e-14
16.692471932460442474	1.5792420389866454799e-14	8.6257228337751872954e-15	2.8913581687752368481e-14
17.109783730771951582	1.1580562720131066953e-14	6.1159139664464534753e-15	2.1927946280907453477e-14
17.537528324041250727	8.7970892761779307165e-15	4.5035763982076634161e-15	1.7183849654209038577e-14
17.97596653214228013	7.100986879726635253e-15	3.5771455684379332979e-15	1.4096159549936613403e-14
18.42536569544583358	6.100899904783420815e-15	3.082498958477169977e-15	1.2074936650286632953e-14
18.885999837831977999	5.4752868670058741386e-15	2.8049715356540611626e-15	1.0687725666712184547e-14
19.358149833777776649	5.0015870576454519718e-15	2.5898597297063318267e-15	9.6591613855639506486e-15
19.84210357962221849	4.5548985863963754853e-15	2.3543143133479148381e-15	8.8123752273555259439e-15
20.338156169112771465	4.0899123567403997211e-15	2.0834455229313613509e-15	8.0287115269914785457e-15
20.846610073340588798	3.6141833539630873809e-15	1.8011230187206989619e-15	7.2523204580116754904e-15
21.367775325174104495	3.1648554751738337276e-15	1.5395279218431841265e-15	6.5060919237800301867e-15
21.901969708303454354	2.7893222288742924566e-15	1.3259354019980669806e-15	5.8677960364946898006e-15
22.449518951011040002	2.5242255276578514763e-15	1.1788794873769322084e-15	5.4048904766821867803e-15
23.010756924786313959	2.3761644738309964152e-15	1.1025849976470597938e-15	5.1208365964942000015e-15
23.586025847905968789	2.3128846667590637489e-15	1.0816423476569428235e-15	4.9456601743794054437e-15
24.175676494103615966	2.2693503155174363785e-15	1.0804321143423015184e-15	4.7665658824608811935e-15
24.780068406456202013	2.1776528982515383832e-15	1.0558136829652068757e-15	4.4914857817954591653e-15
25.399570116617606885	2.0125449415965302841e-15	9.8530084705956032158e-16	4.1107618592161257062e-15
26.034559369533045725	1.8058319043082360907e-15	8.8249191479781013669e-16	3.6952507008119762213e-15
26.685423353771369648	1.6094804413435332592e-15	7.776772457607471354e-16	3.3309799215397400878e-15
27.352558937615651047	1.455152045436745756e-15	6.9147146084159626268e-16	3.0622630075889985352e-15
28.036372911056037793	1.3469852547872415407e-15	6.2908417979887083567e-16	2.8841438632176946647e-15
28.737282233832438294	1.2747109752606072817e-15	5.8779218719605281291e-16	2.7643920859191033781e-15
29.455714289678244455	1.225784421032816105e-15	5.6359441384380606079e-16	2.666008409485709624e-15
30.192107146920200478	1.1899177997617640245e-15	5.5331903755364526489e-16	2.5589294314721695137e-15
30.94690982559320247	1.1591180661890783844e-15	5.5403463256724467878e-16	2.4250373756244162793e-15
31.72058257123302738	1.1279212235281935844e-15	5.6207037243750112634e-16	2.263428831817316611e-15
32.513597135513848002	1.094293980626107809e-15	5.7288428341004706886e-16	2.0902638642949570089e-15
33.326437063901693136	1.0588696484992797415e-15	5.8156195090562678629e-16	1.9279200277236365178e-15
34.159597990499236175	1.0231520059755407997e-15	5.8356604153799897354e-16	1.7938672794818680671e-15
35.013587940261714948	9.8843193489384655447e-16	5.7579445513504866887e-16	1.6967820395020046933e-15
35.888927638768251427	9.5567475165554051203e-16	5.5804886996952055669e-16	1.6366205185609682815e-15
36.786150829737451318	9.254076818350616555e-16	5.3366606280689013509e-16	1.6047102060323968214e-15
37.705804600480888666	8.9740868218538704874e-16	5.080295255667456596e-16	1.5852274372504085438e-15
38.648449715492908751	8.7102528468997385446e-16	4.8586050636515542802e-16	1.5615285388087281512e-15
39.614660958380227385	8.4621722256518119011e-16	4.694954403075684551e-16	1.5252194724123840376e-15
40.605027482339728806	8.2410678834096238816e-16	4.590430712678459069e-16	1.4794951521953787636e-15
41.620153169398214743	8.0602156258265057909e-16	4.5357285898702309048e-16	1.4323404641078072247e-15
42.660656998633172066	7.9193510468036539409e-16	4.5200538743855174364e-16	1.3875082630743227428e-15
43.72717342359899817	7.8017443609808580565e-16	4.5325233033378824332e-16	1.3428991094049584247e-15
44.820352759188963887	7.6869377035817172796e-16	4.5614935276254133531e-16	1.2953873747905166177e-15
45.940861578168686208	7.5636912167707052168e-16	4.5944899399432539304e-16	1.2451746672746202944e-15
47.089383117622901409	7.429460599183772448e-16	4.6178651414974588838e-16	1.1952900984225173374e-15
48.26661769556346826	7.2825587229641568673e-16	4.6189375482311057541e-16	1.1482220965237378566e-15
49.473283137952549282	7.1228948702785006112e-16	4.5931739392195453234e-16	1.1045876338325776641e-15
50.710115216401362659	6.9612148694247559987e-16	4.5513093509421443817e-16	1.0647158591465369375e-15
51.977868096811391752	6.8214942942327567943e-16	4.5149591523319979298e-16	1.0306357784480874408e-15
53.277314799231668019	6.7281405391349057552e-16	4.4987797389719118523e-16	1.0062256376369168483e-15
54.609247669212457765	6.6881530432436947404e-16	4.4987500985685629443e-16	9.9430708863074603385e-16
55.97447886094276015	6.6835087558156733383e-16	4.5025003773302119162e-16	9.9209962344415681002e-16
57.373840832466328266	6.6796111367557275625e-16	4.503572018259700231e-16	9.9070703782177815851e-16
58.808186853277980788	6.6442351777619441682e-16	4.4967904157165726224e-16	9.8171933793304364236e-16
60.278391524609922669	6.5632381794205929681e-16	4.4702989831878664662e-16	9.6360658564017671406e-16
61.785351312725168782	6.4425231921554758762e-16	4.4146134079294812577e-16	9.4019795724147346511e-16
63.329985095543293028	6.2983906630372533793e-16	4.3337818241323583707e-16	9.1536045315748900495e-16
64.913234722931861143	6.1465271825743627856e-16	4.2392548381985895053e-16	8.9118955684625743152e-16
66.536065591005154829	5.9966891882619482968e-16	4.1386978536546663299e-16	8.6887911348404214454e-16
68.199467230780285831	5.8534228606664253966e-16	4.035758562895678323e-16	8.4897445305025262379e-16
69.904453911549779832	5.7185010839222159641e-16	3.9340767385356889907e-16	8.3123072629720392499e-16
71.65206525933851367	5.5919346792606317111e-16	3.8374636449647830554e-16	8.1485419407548997727e-16
73.443366890821977222	5.4720194387415018212e-16	3.7479965386010043842e-16	7.9890673402653489001e-16
75.2794510630925231	5.3564279520454635957e-16	3.6655459915148969339e-16	7.8272978901013352869e-16
77.161437339669831204	5.2440675790910786813e-16	3.589027229489480156e-16	7.6623115445089366282e-16
79.090473273161563839	5.1353823782750091022e-16	3.517390705534794958e-16	7.4976465166634888374e-16
81.067735104990603645	5.0304782095308020751e-16	3.4491444671068535743e-16	7.3368080861485883268e-16
83.094428482615356302	4.9273739781388545756e-16	3.3813059203705236865e-16	7.1803660751818122029e-16
85.171789194680727064	4.8225222673357497951e-16	3.3101405120577156569e-16	7.025901448664435979e-16
87.301083924547739912	4.7128819243908055414e-16	3.2335623735370819016e-16	6.8689740501134840812e-16
89.483611022661420975	4.59750226492118949e-16	3.1524480216528788964e-16	6.7049565705045266613e-16
91.720701298227950815	4.4774650100061115741e-16	3.0697573962690344104e-16	6.5307092150652939339e-16
94.013718830683643546	4.3549062749032505268e-16	2.9886914575376465032e-16	6.345656262161285546e-16
96.364061801450731082	4.2321386288855079891e-16	2.9110868237746978714e-16	6.1526840174695942313e-16
98.773163346486981595	4.1109049788255291853e-16	2.8364058413786417507e-16	5.9580824078117339021e-16
101.24249243014915578	3.9914978766227477852e-16	2.7614993113292463357e-16	5.7693497274185517008e-16
103.77355474090286691	3.8723105488492717402e-16	2.6822233073953069402e-16	5.5904327374183884993e-16
106.36789360942543681	3.750358697150350719e-16	2.5961133675018179102e-16	5.4177874253719107367e-16
109.02709094966105852	3.6226444111269381202e-16	2.5036571047891188135e-16	5.2417531555602646459e-16
111.7527682234025832	3.487730048211563548e-16	2.4074232312802288436e-16	5.0528136187873698178e-16
114.54658742898763535	3.3468433826427837749e-16	2.31028531128977789e-16	4.8484750230638546594e-16
117.41025211471232126	3.2038839033973730571e-16	2.2145478735468334604e-16	4.6351998929734156262e-16
120.3455084175801062	3.0637069204275823347e-16	2.1221136543088551635e-16	4.423090193693162688e-16
123.35414612801960743	2.9293540700422771455e-16	2.0340404574373939091e-16	4.2187534846205853507e-16
126.43799978122008554	2.8001498013821615055e-16	1.9492649930640123093e-16	4.0224592028689202045e-16
129.59894977575058306	2.6722384267903526596e-16	1.8644848840266568077e-16	3.8299362310694309782e-16
