# GEOPSY output version 1.1
# Number of windows = 77
# f0 from average	3.27149
# Number of windows for f0 = 77
# f0 from windows	3.44925	2.9823	3.98932
# f0 amplitude	3.47913e-13
# Position	0 0 0
# Category	Default
# Frequency	Average	Min	Max
1	1.4566585387519431171e-15	9.7279704604656035536e-16	2.1811888791625603045e-15
1.0249999999999999112	1.5461581603308683784e-15	1.0518719857729072871e-15	2.2727148256554599158e-15
1.0506249999999999201	1.6663749903436891311e-15	1.1694633763033061504e-15	2.3744271643806924474e-15
1.0768906249999996572	1.8275325202262341427e-15	1.3284035737206719244e-15	2.5142021435021658567e-15
1.1038128906249995431	2.0381368119109735405e-15	1.5340641463335006965e-15	2.7078409165581009375e-15
1.1314082128906244318	2.3042637510066900637e-15	1.7661411260230499775e-15	3.0063460705201456424e-15
1.1596934182128899593	2.6248405492868904195e-15	1.9900087203015685085e-15	3.4621898079605488234e-15
1.1886857536682122749	2.9864503973223735414e-15	2.2249829236069134342e-15	4.0085188434653611519e-15
1.2184028975099172598	3.3686905921674937576e-15	2.5077943335704870886e-15	4.5251223969395005403e-15
1.2488629699476652135	3.7646539552804812942e-15	2.8330577005479880944e-15	5.0025876282956087582e-15
1.280084544196356644	4.199244807595725408e-15	3.1789072416104870718e-15	5.5470813125035249871e-15
1.3120866578012655435	4.7247470752931437123e-15	3.5801850517924919598e-15	6.2352181807793810742e-15
1.3448888242462970766	5.3977358058937809737e-15	4.1323742822401107141e-15	7.0505597606308189067e-15
1.378511044852454237	6.2560497405562175508e-15	4.8896842713420269633e-15	8.0042301679269014185e-15
1.4129738209737656707	7.3090203746468298555e-15	5.794086838998683887e-15	9.2200514630593060681e-15
1.448298166498109607	8.5444988075062467143e-15	6.7736330036799026432e-15	1.0778331189748908669e-14
1.4845056206605622418	9.9515560582925234421e-15	7.8332044174613812702e-15	1.2642778447167579333e-14
1.5216182611770761035	1.1558941694746014127e-14	8.9906268857904824932e-15	1.4860936261708803208e-14
1.559658717706502884	1.3484029033143828531e-14	1.0325347817489006866e-14	1.7608998958727741467e-14
1.5986501856491652784	1.5959928474315745266e-14	1.2048632740586801884e-14	2.1140931289841022364e-14
1.6386164402903942161	1.9290436100435122513e-14	1.444253990941920728e-14	2.5765615139638904504e-14
1.6795818512976541381	2.3717430309328227412e-14	1.7721756255894753788e-14	3.1741577547695504387e-14
1.7215713975800952529	2.9253165186001631378e-14	2.190304307698471297e-14	3.9069807350134866226e-14
1.7646106825195975176	3.5633531177149808083e-14	2.6818918238865114994e-14	4.7345255794576704816e-14
1.8087259495825871447	4.251776000318795501e-14	3.2255600944420145032e-14	5.6044837571113718768e-14
1.85394409832215179	4.9764496056704393821e-14	3.8033065528170825792e-14	6.5114526883020168571e-14
1.9002927007802052906	5.7437157276081734171e-14	4.4020537420811099755e-14	7.4942906862325225279e-14
1.9478000182997103895	6.5505702273089238293e-14	5.0198643033500121993e-14	8.5480339128430368243e-14
1.9964950187572030327	7.3647402414095235253e-14	5.6560894649166409787e-14	9.5895581496492803955e-14
2.0464073942261329364	8.1525898421025504186e-14	6.3024424704893431416e-14	1.0545867168922072255e-13
2.0975675790817858157	8.9341322348564820205e-14	6.9738184492774977499e-14	1.1445482753880848493e-13
2.150006768558830661	9.7963887546758528396e-14	7.713297121907892612e-14	1.2442050541546026525e-13
2.2037569377728010167	1.0837203904744316958e-13	8.5550984185596931901e-14	1.3728069827720123857e-13
2.2588508612171209755	1.2093302288589407252e-13	9.5184586900167575119e-14	1.5364668273088266874e-13
2.3153221327475486113	1.3524490720484743018e-13	1.0568397305925207e-13	1.7307434983157549622e-13
2.3732051860662370935	1.5077065837810309471e-13	1.1595868188145875799e-13	1.9603354452584008043e-13
2.4325353157178928321	1.6770640338924908482e-13	1.259137581327569934e-13	2.2337064793271854146e-13
2.4933486986108399641	1.8708747670367090834e-13	1.3727697378924892903e-13	2.5497155839902281735e-13
2.5556824160761109077	2.0976609846967643047e-13	1.5160002097497492917e-13	2.902494061953560072e-13
2.6195744764780131142	2.3494451844249039694e-13	1.6815952525260478889e-13	3.2825334552565693371e-13
2.6850638383899632089	2.5951673756887588607e-13	1.8367112337600386845e-13	3.6668222984904849818e-13
2.7521904343497123335	2.7944337546846528662e-13	1.9520347001066682323e-13	4.0003694652017474146e-13
2.8209951952084546534	2.9275778369800910302e-13	2.0328139212105083967e-13	4.216181275693599065e-13
2.8915200750886658199	3.0134254109787999012e-13	2.1061786968169443036e-13	4.3114730584144673653e-13
2.9638080769658823321	3.0948773867851490831e-13	2.19340809801511535e-13	4.3668417418089000256e-13
3.0379032788900293127	3.2065958409096345558e-13	2.2995807510173726905e-13	4.4713615220469755278e-13
3.1138508608622794682	3.3509433383804524428e-13	2.4167258161188156685e-13	4.6462950749909475496e-13
3.1916971323838363439	3.4939341545430033631e-13	2.5265552878084017464e-13	4.8317073982858660204e-13
3.2714895606934319972	3.5830377117234718206e-13	2.6005908041419677609e-13	4.9366317927392514945e-13
3.3532767997107675306	3.5813767829882722891e-13	2.6150446301202388806e-13	4.9047957017611884951e-13
3.4371087197035361527	3.4965024453323580327e-13	2.5778487483607164963e-13	4.7425316780084612854e-13
3.5230364376961245121	3.3767173683069653862e-13	2.5256042390030808616e-13	4.5146503990374430631e-13
3.6111123486385272585	3.2777072304617378641e-13	2.4873482099317699741e-13	4.3192041410703232452e-13
3.7013901573544902845	3.2291857975930940419e-13	2.4649126009475877283e-13	4.2304302843712362288e-13
3.7939249112883519643	3.2247451563751582202e-13	2.4444534531137759343e-13	4.2541130453184494259e-13
3.8887730340705606302	3.2363206490722562157e-13	2.4106867645733299716e-13	4.3447251204638503907e-13
3.9859923599223243684	3.2380086878924128897e-13	2.3603301328384832117e-13	4.4420482190167467862e-13
4.0856421689203816783	3.2197541447626815769e-13	2.3082858034552346464e-13	4.4911322234008248492e-13
4.1877832231433913535	3.1805721207966422991e-13	2.2645066750399363649e-13	4.4672153661946908325e-13
4.2924778037219750715	3.1155149820608564854e-13	2.2143949328713769313e-13	4.3833344537414800901e-13
4.3997897488150243817	3.0170287257682519612e-13	2.1368696688821595433e-13	4.2597180654786901496e-13
4.5097844925353998136	2.8904325736976456317e-13	2.0362709005707005314e-13	4.1028924298583615046e-13
4.6225291048487839873	2.7606460415556755199e-13	1.9410944253503253192e-13	3.9262214486972034949e-13
4.7380923324700034982	2.6558756812013825599e-13	1.8737603147941189511e-13	3.7644492618960908613e-13
4.856544640781753408	2.5833479911034252768e-13	1.8311500014129977859e-13	3.6445331283556160865e-13
4.9779582568012967769	2.5213022305768044767e-13	1.7909413828618240074e-13	3.5495103294522659966e-13
5.1024072132213289521	2.4371253984527204018e-13	1.7332481243142189953e-13	3.4268493497625446506e-13
5.2299673935518615764	2.316880043754364755e-13	1.6565202381643037107e-13	3.2404875071709223627e-13
5.3607165783906571832	2.1755478498720579443e-13	1.5731374181813965051e-13	3.0086427240122877327e-13
5.4947344928504229244	2.0393021619207052228e-13	1.493508265662022818e-13	2.7845532584120146958e-13
5.6321028551716834087	1.924204822110793404e-13	1.4200182794542478487e-13	2.6074060108982732045e-13
5.7729054265509747168	1.8311460557822041433e-13	1.3523343513320615794e-13	2.4794873207974742037e-13
5.9172280622147486184	1.7541554771921791583e-13	1.2893506921724363663e-13	2.3865201739479881357e-13
6.0651587637701167566	1.6891796138373731908e-13	1.230182403579193483e-13	2.3194347110656693604e-13
6.2167877328643692536	1.6342861088256995891e-13	1.1778288989782706491e-13	2.2676392876907333003e-13
6.3722074261859784627	1.5835072732317859533e-13	1.1355587821920327405e-13	2.2081598273033539401e-13
6.5315126118406272582	1.5238367528585671556e-13	1.0983098189995839921e-13	2.1142289809242079048e-13
6.6948004271366423623	1.441976895038690753e-13	1.0504149785885209206e-13	1.9795008717596997318e-13
6.8621704378150578663	1.3360883177473692537e-13	9.758405807734294042e-14	1.8293274823702654371e-13
7.0337246987604338244	1.2188776660013337743e-13	8.7703489282568932742e-14	1.6939608410450487312e-13
7.2095678162294438707	1.1078365921895356951e-13	7.7587888128924486549e-14	1.5818215247137133057e-13
7.3898070116351792791	1.0146278632924602489e-13	6.9139439534848832237e-14	1.4889760575084391595e-13
7.5745521869260574732	9.4329751594982599503e-14	6.3019911125627629097e-14	1.4119509020304894193e-13
7.7639159915992088656	8.9399649634542429491e-14	5.9203094527258120786e-14	1.3499796621440374104e-13
7.9580138913891884656	8.6526662623289710568e-14	5.7340607020555136864e-14	1.3056826102382824095e-13
8.1569642386739165119	8.527313623874366892e-14	5.6789989588223832865e-14	1.2804206897581794481e-13
8.3608883446407649132	8.4752390950737829918e-14	5.6710053303138276806e-14	1.2666127703091418767e-13
8.5699105532567827481	8.3863815024808624466e-14	5.6315093132094928996e-14	1.2488906755455602266e-13
8.7841583170882007181	8.1897967122721036838e-14	5.5268410579436841454e-14	1.2135823969813606493e-13
9.0037622750154060469	7.8985492989979734327e-14	5.3856002027000686854e-14	1.1584053528040130298e-13
9.2288563318907907984	7.5968311898120145758e-14	5.2601956108311497695e-14	1.0971425474685289882e-13
9.4595777401880596358	7.3880252008409877534e-14	5.1827919074275142574e-14	1.0531566256796488036e-13
9.6960671836927598832	7.3432504080178660858e-14	5.1623706304759270738e-14	1.0445458184757121663e-13
9.9384688632850775036	7.469967078728627182e-14	5.2017356163012033391e-14	1.072726725718664671e-13
10.186930584867203819	7.7076428586451551267e-14	5.2944718394781756588e-14	1.1220714782813708904e-13
10.441603849488883426	7.9596979082579718026e-14	5.4142458512596372453e-14	1.170186809599461054e-13
10.70264394572610378	8.1537121133066275237e-14	5.5371146694747158507e-14	1.2006798702073873919e-13
10.970210044369256508	8.2847250958428574481e-14	5.6750422875476176915e-14	1.2094477263067007181e-13
11.244465295478486055	8.3961459973415430278e-14	5.8550402949117812572e-14	1.2040099479748597683e-13
11.52557692786544763	8.5202883360672062889e-14	6.0564305273873167303e-14	1.1986484943803982986e-13
11.813716351062081955	8.6379529759186971253e-14	6.1959121617168543727e-14	1.2042493448375077587e-13
12.109059259838634404	8.6828659365880708012e-14	6.1910150426964499067e-14	1.2177673669473908999e-13
12.411785741334599109	8.5813687676455926753e-14	6.0228178252337973038e-14	1.2226816759722372181e-13
12.722080384867961556	8.2970435334444197164e-14	5.7320703283492105945e-14	1.2009784851278593953e-13
13.040132394489660328	7.8461229906005765672e-14	5.3716567466213977224e-14	1.1460457897342614245e-13
13.366135704351901126	7.2761455070473798267e-14	4.9636518899832139076e-14	1.0665996450428921987e-13
13.700289096960696966	6.6342804330516069234e-14	4.4945841749404289666e-14	9.7926026415902591456e-14
14.042796324384713813	5.9508744420815958969e-14	3.9500254476077121379e-14	8.9652350586418050591e-14
14.393866232494330504	5.241813772444748403e-14	3.3535104112764422041e-14	8.1933878996168256327e-14
14.753712888306687034	4.5181593390979470196e-14	2.7614109121241755735e-14	7.3925121842062260442e-14
15.122555710514353322	3.7927029799474019646e-14	2.2246826408241526588e-14	6.4659091729025255219e-14
15.50061960327720989	3.0854149874932837045e-14	1.7641777846994460146e-14	5.3961600285483801501e-14
15.888135093359139205	2.4288709116343170946e-14	1.3747025391675635717e-14	4.2914112233732003006e-14
16.285338470693115909	1.862757962049764395e-14	1.0469097106693614339e-14	3.3143901425475041162e-14
16.692471932460442474	1.4157099414156854952e-14	7.830194272087319209e-15	2.5596231314053061188e-14
17.109783730771951582	1.0911211143659179281e-14	5.8867275778568792443e-15	2.0224229344218307664e-14
17.537528324041250727	8.6981003816795036075e-15	4.582726018639028123e-15	1.6509158510034954927e-14
17.97596653214228013	7.2295537292519384121e-15	3.7591262958343307338e-15	1.3903881649855600126e-14
18.42536569544583358	6.2301193632815127342e-15	3.2360118253099315836e-15	1.1994513424566290885e-14
18.885999837831977999	5.4873434904086432645e-15	2.8602035073552668735e-15	1.0527551100576292326e-14
19.358149833777776649	4.8659760418467006605e-15	2.5288778697976892981e-15	9.3629364717879032383e-15
19.84210357962221849	4.3040613258578851772e-15	2.2041593816656423493e-15	8.4045391866111695538e-15
20.338156169112771465	3.7931820061472990594e-15	1.8988107584254064622e-15	7.5774953706767091553e-15
20.846610073340588798	3.3493639028019331045e-15	1.6388155072357932206e-15	6.8453334154217973403e-15
21.367775325174104495	2.9888624863911768776e-15	1.4383074323620948513e-15	6.2109801851510453351e-15
21.901969708303454354	2.7196700458201947234e-15	1.2991148492833968173e-15	5.693572944849065866e-15
22.449518951011040002	2.5426064670865015547e-15	1.2188825958507434183e-15	5.3039133288779392645e-15
23.010756924786313959	2.4477201509750603162e-15	1.1918352719921924063e-15	5.0269815622041941263e-15
23.586025847905968789	2.4044444022215787167e-15	1.2011075712838466198e-15	4.813351461264273197e-15
24.175676494103615966	2.3588360235370679161e-15	1.2130809025035435803e-15	4.586757053427368853e-15
24.780068406456202013	2.2560368121482087167e-15	1.1891412003650879947e-15	4.2801494862050205667e-15
25.399570116617606885	2.0801318467705618201e-15	1.1134386726120967861e-15	3.8861129996483824138e-15
26.034559369533045725	1.8656878678554470566e-15	1.0041774688946835408e-15	3.46631081465547601e-15
26.685423353771369648	1.6627886645274131439e-15	8.924402154690228946e-16	3.0980967631851732094e-15
27.352558937615651047	1.5000657951595837066e-15	7.9811516535424737975e-16	2.8193893406460869093e-15
28.036372911056037793	1.3799062831525899683e-15	7.2605853676522702289e-16	2.622572773219392856e-15
28.737282233832438294	1.2930263942376080285e-15	6.7437377272895066863e-16	2.4792145302885312811e-15
29.455714289678244455	1.2305849385549615059e-15	6.4104378901435228658e-16	2.3623024151387792769e-15
30.192107146920200478	1.186709052213415592e-15	6.2480345712547525393e-16	2.2539541971875605017e-15
30.94690982559320247	1.1559745057372517557e-15	6.2308379432805662975e-16	2.1446185410030535969e-15
31.72058257123302738	1.1322346507724029108e-15	6.3059009842050240362e-16	2.0329455023488913781e-15
32.513597135513848002	1.1100130683032693565e-15	6.3997631970861969977e-16	1.9252728169145773585e-15
33.326437063901693136	1.0856872880282413703e-15	6.4416803108857739727e-16	1.8298282909106924923e-15
34.159597990499236175	1.0576557015404310717e-15	6.389140891037224846e-16	1.7508388092837628968e-15
35.013587940261714948	1.0261682183195925531e-15	6.2361969467892899693e-16	1.6885631119000428837e-15
35.888927638768251427	9.9308999990065394494e-16	6.0037388998550174347e-16	1.6426892713913607273e-15
36.786150829737451318	9.61003972304829216e-16	5.7248646927745972017e-16	1.6131885805986903534e-15
37.705804600480888666	9.317685141754291598e-16	5.4353545374081645897e-16	1.5973062254420709509e-15
38.648449715492908751	9.0561320068528756364e-16	5.1689438665053594303e-16	1.5866592681919203169e-15
39.614660958380227385	8.8144630509338853887e-16	4.9544912345811057328e-16	1.5681682578019066508e-15
40.605027482339728806	8.5814335234437230282e-16	4.8144331097237399744e-16	1.5295882119236544738e-15
41.620153169398214743	8.3568317842951719373e-16	4.7587076022229315492e-16	1.467554708307425656e-15
42.660656998633172066	8.1524500730769000536e-16	4.7745211496266993015e-16	1.3920232021426480828e-15
43.72717342359899817	7.9844576628766422359e-16	4.8254313047916030264e-16	1.3211578435893365933e-15
44.820352759188963887	7.8629255464766053899e-16	4.8720140084867110928e-16	1.2689946712332622299e-15
45.940861578168686208	7.7827523412446119547e-16	4.9011105657132838646e-16	1.2358675282473095849e-15
47.089383117622901409	7.7210045018222359644e-16	4.9245628047443987945e-16	1.210542191882014003e-15
48.26661769556346826	7.645909249527658653e-16	4.9487662650864232914e-16	1.1813030787986040123e-15
49.473283137952549282	7.5359476288621586129e-16	4.9623207792231658696e-16	1.1444344126790520345e-15
50.710115216401362659	7.3956827733519751002e-16	4.9517843885968576141e-16	1.1045740159852539283e-15
51.977868096811391752	7.2536769297303759456e-16	4.9177711322324523317e-16	1.0699121123397504793e-15
53.277314799231668019	7.1429878056504510535e-16	4.8716039607944397247e-16	1.0473403667926766531e-15
54.609247669212457765	7.0801025268550744091e-16	4.8205935381205811538e-16	1.0398688749502637785e-15
55.97447886094276015	7.0561433045784752413e-16	4.768325461758352762e-16	1.0441644290863389149e-15
57.373840832466328266	7.0430104495295246895e-16	4.7281795635871068558e-16	1.0491140517207691756e-15
58.808186853277980788	7.0101052338433391094e-16	4.7154024826828082703e-16	1.0421501784848466435e-15
60.278391524609922669	6.9407962322228222666e-16	4.7229054508984832773e-16	1.0200215278091964751e-15
61.785351312725168782	6.8371864640347263476e-16	4.7208895259085876731e-16	9.9021844267755210898e-16
63.329985095543293028	6.7115006013993520648e-16	4.6852219405817341156e-16	9.6141102585614126399e-16
64.913234722931861143	6.5740021062943798818e-16	4.6151684220247137683e-16	9.364231105265506236e-16
66.536065591005154829	6.4281767356944372691e-16	4.5203148311050280744e-16	9.1412783598574749312e-16
68.199467230780285831	6.2750807123721371525e-16	4.4071481843782337046e-16	8.9347206627544147816e-16
69.904453911549779832	6.1189596740496058187e-16	4.2815458049892669466e-16	8.7448947641794802541e-16
71.65206525933851367	5.9668739872003059606e-16	4.1528831206787658767e-16	8.5732210959282827069e-16
73.443366890821977222	5.8239569709757537181e-16	4.0311205093952084697e-16	8.4141554986322866304e-16
75.2794510630925231	5.690933964938330836e-16	3.9220034241087595477e-16	8.2577004380480127736e-16
77.161437339669831204	5.5660069407446064532e-16	3.8262920832331629062e-16	8.0967246071395318937e-16
79.090473273161563839	5.4474083168051443041e-16	3.7415606554526654276e-16	7.9309839135583308903e-16
81.067735104990603645	5.3336371634522879825e-16	3.6635668296047852895e-16	7.7650242822042964011e-16
83.094428482615356302	5.2226200911252651498e-16	3.5875886236335838879e-16	7.6028116592140983843e-16
85.171789194680727064	5.1121025157538651837e-16	3.5106624542222985058e-16	7.4440629004779262358e-16
87.301083924547739912	5.0006309450225196062e-16	3.4328102105326064652e-16	7.2845011272665276753e-16
89.483611022661420975	4.8875332769320425955e-16	3.3556900960711658108e-16	7.1186494727525835127e-16
91.720701298227950815	4.7720252576357572674e-16	3.2805739196280547083e-16	6.9415369436624332272e-16
94.013718830683643546	4.6529419206039508049e-16	3.2073916762911026448e-16	6.7499921124533848996e-16
96.364061801450731082	4.5297348614729169644e-16	3.134612401278047289e-16	6.5457847059104482136e-16
98.773163346486981595	4.4034122465407374346e-16	3.0597588672577679843e-16	6.3371135616195725499e-16
101.24249243014915578	4.2757719058369371552e-16	2.9801753771548140768e-16	6.1346139327540358784e-16
103.77355474090286691	4.1469375741384870124e-16	2.8932739494535026593e-16	5.9438171235219112627e-16
106.36789360942543681	4.0138471161489181838e-16	2.796814891855679405e-16	5.7604701400625772572e-16
109.02709094966105852	3.8719796830956952131e-16	2.6901839829846585247e-16	5.5729373013635021789e-16
111.7527682234025832	3.7193178332478433465e-16	2.5758806662495033507e-16	5.3703284185353317461e-16
114.54658742898763535	3.5588898910290046131e-16	2.4589617151216200777e-16	5.1508314174147257757e-16
117.41025211471232126	3.3973950426722085824e-16	2.3445679994922418084e-16	4.922993523102502089e-16
120.3455084175801062	3.2411979217106158536e-16	2.2359528879218801976e-16	4.6983834160589219261e-16
123.35414612801960743	3.0932195296164451648e-16	2.1340113841427659436e-16	4.483578264623015495e-16
126.43799978122008554	2.9526740108635271641e-16	2.0378855779887846022e-16	4.278102710277332574e-16
129.59894977575058306	2.8167205208959099702e-16	1.946044429559542921e-16	4.0769441706075772946e-16
